ExtForce stiffnessValue  h   x desiredFrameZ   xdot   xddot   E   commandesPos  emgForce Fimp DesiredForceZ desiredDeltaZ 
-2.640819 -1.026800 -1.900987 -0.108769 -1.159556 0.011253-4.765893 -1.007081 19.852767 -0.025873 -1.133834 -0.090913-4.796801 -2.358499 2.343344 0.079228 -1.038355 -0.174583-4.372166 -2.105255 0.057438 0.132119 -1.121875 -0.158447-4.352490 -2.158880 0.036063 0.135457 -1.124586 -0.152065-4.365961 -2.152297 0.018078 0.133241 -1.130337 -0.150853-4.356316 -2.141467 0.015609 0.131300 -1.131327 -0.149398-4.358513 -2.149570 0.009418 0.132475 -1.133156 -0.148413-3.743520 -2.185629 -0.073978 0.130274 -1.047341 -0.143156-3.565664 -2.198968 -0.135117 0.140319 -1.033148 -0.140893-3.654624 -2.205525 -0.195456 0.162741 -1.072822 -0.140393-4.392119 -2.416838 -0.202001 0.216916 -1.224989 -0.146406-5.444442 -2.565671 -0.061252 0.313395 -1.472489 -0.145059-5.455077 -2.541457 0.081380 0.355028 -1.577018 -0.121042-4.638955 -2.353761 -0.306937 0.390236 -1.603454 -0.079632-4.030285 -1.958318 -0.273166 0.391462 -1.649731 -0.024397-2.892854 -1.456711 -0.347467 0.362182 -1.639441 0.037902-2.333123 -1.056185 -0.648036 0.315099 -1.644028 0.071855-1.792315 -0.760610 -0.674273 0.249431 -1.637968 0.066587-1.741422 -0.668448 -0.537156 0.208755 -1.672121 0.027456-1.415752 -0.646484 -0.326664 0.132676 -1.635951 -0.039460-2.129473 -1.166935 -0.217079 0.137409 -1.685049 -0.100907-3.394779 -1.898818 0.122574 0.163014 -1.793647 -0.172186-4.552432 -2.485988 0.333555 0.202664 -1.909280 -0.228115-4.580750 -2.759207 0.602583 0.216619 -1.857779 -0.230543-4.635391 -3.030205 0.664512 0.255000 -1.831487 -0.212370-4.655379 -3.006631 0.734055 0.272901 -1.816273 -0.173593-3.793685 -2.488150 0.576065 0.236331 -1.725039 -0.141990-2.734800 -1.438296 0.439536 0.152734 -1.599799 -0.092259-2.176854 -0.831924 0.220929 0.099489 -1.529554 -0.075337-1.899646 -0.347944 -0.040167 0.068802 -1.486739 -0.078788-2.756618 -0.287396 0.092959 0.091353 -1.545722 -0.097211-3.394515 -0.454833 0.356713 0.107420 -1.539858 -0.130979-4.179936 -0.829147 0.774778 0.137372 -1.533526 -0.176776-5.353703 -1.241458 1.085429 0.183890 -1.620509 -0.219556-5.521549 -1.715615 1.164860 0.219528 -1.561074 -0.245628-6.017299 -2.053528 1.146491 0.246429 -1.558897 -0.250614-5.945392 -2.424256 1.361662 0.273180 -1.489466 -0.238727-5.495086 -2.550482 1.456473 0.269352 -1.379779 -0.216520-5.442586 -2.624491 1.387376 0.271129 -1.355940 -0.201898-5.337757 -2.609232 1.140243 0.271282 -1.344610 -0.185059-4.746813 -2.528037 0.898345 0.281093 -1.279776 -0.153763-5.383121 -2.736846 0.728918 0.342991 -1.390822 -0.139796-5.948281 -3.034213 0.388105 0.397820 -1.508202 -0.138048-5.750067 -3.003097 0.150839 0.391946 -1.506715 -0.135275-5.734380 -2.800273 -0.148989 0.349971 -1.538384 -0.150288-5.539569 -2.595202 -0.328082 0.297616 -1.537840 -0.171912-5.436460 -2.412084 -0.454828 0.255139 -1.540234 -0.195577-5.021102 -2.430277 -0.574444 0.238577 -1.499650 -0.216367-4.477493 -2.395061 -0.651629 0.218537 -1.416066 -0.228099-4.711546 -2.412711 -0.682185 0.211515 -1.424685 -0.242434-5.179042 -2.568328 -0.652250 0.234781 -1.481788 -0.253308-5.164397 -2.706089 -0.699085 0.260136 -1.440260 -0.250081-5.421438 -2.847264 -0.773640 0.288504 -1.423721 -0.250089-5.777966 -3.062819 -0.589588 0.324756 -1.426211 -0.250807-6.128890 -3.394990 -0.288230 0.362053 -1.413011 -0.250617-6.370840 -3.527546 -0.143915 0.368466 -1.403264 -0.253570-6.094024 -3.472020 0.123144 0.357799 -1.350563 -0.255615-5.836695 -3.491026 0.374743 0.368145 -1.330276 -0.255271-5.583424 -3.341256 0.540907 0.367205 -1.328315 -0.246907-5.443989 -3.320663 0.697177 0.388164 -1.335495 -0.229855-5.288386 -3.362821 0.903537 0.414190 -1.347520 -0.213226-5.467704 -3.349345 0.841032 0.429287 -1.422289 -0.204345-5.561901 -3.229669 0.738006 0.418030 -1.460596 -0.198343-5.436184 -3.129514 0.358981 0.406197 -1.484083 -0.200420-5.474717 -3.146525 0.011221 0.426202 -1.529607 -0.202993-5.547495 -3.200941 -0.138713 0.458479 -1.556538 -0.197140-5.298007 -3.126554 -0.261468 0.473545 -1.534870 -0.188968-4.917440 -3.140132 -0.517594 0.490103 -1.519518 -0.184056-4.737623 -3.052184 -0.707733 0.487856 -1.515766 -0.179660-4.570995 -3.030538 -0.855908 0.497225 -1.512661 -0.174920-4.365112 -3.050789 -0.955887 0.511378 -1.498709 -0.168837-4.479265 -3.015197 -0.937919 0.528438 -1.519839 -0.161167-4.539531 -3.122238 -0.859742 0.552676 -1.522263 -0.152302-4.795353 -3.245427 -0.781603 0.582892 -1.545880 -0.142344-4.810981 -3.322471 -0.649074 0.596649 -1.548619 -0.140214-4.867670 -3.307441 -0.575225 0.593050 -1.560110 -0.141521-4.649304 -3.178460 -0.420232 0.557191 -1.537596 -0.145617-4.465639 -3.050929 -0.200909 0.510970 -1.519671 -0.151634-4.330775 -3.087728 0.114109 0.480454 -1.500034 -0.155364-4.278389 -3.148001 0.556204 0.461108 -1.487938 -0.157644-4.452812 -3.287299 0.865532 0.451752 -1.509061 -0.163968-4.563658 -3.328136 0.906420 0.430805 -1.527317 -0.175266-4.827020 -3.352334 0.824264 0.404154 -1.566348 -0.193311-5.051334 -3.413711 0.680969 0.386749 -1.593329 -0.209343-5.186230 -3.536462 0.476258 0.376861 -1.618554 -0.225091-5.216501 -3.496467 0.244422 0.382868 -1.636455 -0.233474-5.001777 -3.464437 -0.010242 0.366918 -1.619455 -0.241577-4.654990 -3.225862 -0.227424 0.317389 -1.592747 -0.250720-4.547656 -3.119414 -0.396618 0.286263 -1.600509 -0.255342-4.512251 -3.015097 -0.661370 0.252446 -1.624150 -0.257417-4.387097 -2.975526 -0.743912 0.228994 -1.614843 -0.253951-4.459840 -2.980813 -0.742655 0.219760 -1.630770 -0.255289-4.672353 -3.166950 -0.857159 0.238566 -1.662848 -0.259800-4.719702 -3.115511 -0.756678 0.232027 -1.657981 -0.261092-4.798341 -3.069525 -0.776041 0.225315 -1.670455 -0.269109-4.785104 -2.999962 -0.782384 0.212999 -1.672497 -0.277469-4.616372 -2.844831 -0.664091 0.186759 -1.648719 -0.286169-4.502134 -2.806345 -0.555139 0.180269 -1.624323 -0.286681-4.448354 -2.739130 -0.295839 0.173502 -1.602873 -0.288051-4.543139 -2.700471 0.042743 0.173735 -1.597042 -0.283491-4.752981 -2.694389 0.192358 0.179274 -1.605841 -0.277269-4.830959 -2.687341 0.560324 0.186229 -1.584925 -0.266615-5.133221 -2.719582 0.706775 0.205764 -1.593058 -0.259818-5.279342 -2.663131 0.794902 0.218228 -1.561890 -0.251332-5.272623 -2.541509 0.741053 0.223056 -1.514799 -0.246907-5.134429 -2.367810 0.741842 0.232716 -1.430524 -0.239132-5.184081 -2.423275 0.629330 0.251100 -1.380252 -0.234616-5.148113 -2.310816 0.566276 0.255221 -1.310397 -0.225054-5.270204 -2.219174 0.609299 0.272557 -1.251455 -0.211288-5.501448 -2.260951 0.471128 0.295290 -1.231914 -0.204208-5.658190 -2.270759 0.482840 0.323209 -1.162665 -0.187390-5.575020 -2.345189 0.585533 0.351723 -1.063827 -0.170678-5.913962 -2.476925 0.660699 0.388591 -1.037840 -0.163293-6.084096 -2.536845 0.791460 0.412439 -0.995555 -0.156664-6.075724 -2.468829 0.738745 0.418933 -0.929366 -0.150695-5.850782 -2.370272 0.546272 0.414173 -0.853650 -0.145982-5.679070 -2.234830 0.423161 0.409132 -0.785835 -0.136063-5.668034 -2.214908 0.311765 0.416867 -0.749399 -0.123950-5.491906 -2.179735 0.231357 0.409954 -0.701973 -0.107657-5.464336 -2.213660 0.247818 0.415818 -0.673572 -0.086761-5.451318 -2.144586 0.187328 0.406281 -0.672263 -0.070648-5.417586 -2.215741 0.022787 0.411842 -0.672312 -0.058271-5.001479 -2.172908 -0.145420 0.403928 -0.630817 -0.043890-4.814075 -2.069086 -0.193350 0.394732 -0.628744 -0.030831-4.895707 -2.075118 -0.377125 0.398261 -0.675149 -0.023071-4.656768 -1.998705 -0.731722 0.389556 -0.681787 -0.013243-4.024380 -1.957209 -0.879488 0.384746 -0.627866 -0.000159-3.833885 -1.943759 -0.963791 0.394962 -0.625218 0.014363-3.955937 -1.990110 -1.110210 0.410565 -0.671457 0.024977-3.974556 -1.981119 -1.122449 0.425339 -0.708299 0.040175-4.118694 -2.096399 -1.064473 0.468417 -0.752804 0.053842-3.841165 -2.237618 -0.992935 0.511617 -0.746928 0.066097-3.740630 -2.167770 -1.016339 0.541233 -0.776998 0.072625-3.495491 -1.917956 -1.117090 0.540590 -0.801551 0.080331-3.291436 -1.850287 -1.309674 0.574768 -0.819664 0.090272-2.983108 -1.853633 -1.744194 0.599080 -0.841156 0.093068-2.717310 -1.745893 -1.460664 0.611990 -0.795742 0.111685-2.893107 -1.833996 -1.173499 0.663351 -0.826123 0.121658-3.114980 -1.981117 -1.064422 0.710742 -0.866568 0.128123-3.034864 -2.061919 -1.049193 0.740477 -0.891795 0.124419-3.118383 -2.036014 -1.593610 0.751935 -0.938721 0.114105-3.136872 -1.760083 -0.851302 0.764646 -0.920749 0.128048-3.212117 -2.058231 -0.363746 0.843006 -0.961137 0.132766-3.083456 -2.199229 -0.437642 0.871887 -0.976235 0.132856-2.791513 -2.055777 -0.638456 0.867239 -0.961176 0.134108-2.362378 -1.829691 -0.532902 0.858422 -0.924523 0.142783-2.668056 -1.554964 -0.717287 0.860182 -1.009238 0.143485-2.418674 -1.652562 -0.766926 0.877957 -0.984207 0.152326-2.229868 -1.938696 -0.021157 0.944048 -0.949702 0.172404-2.645823 -2.182875 0.271305 0.993993 -1.002248 0.184550-3.037250 -2.499912 -0.001622 1.028419 -1.077142 0.185907-2.989983 -2.271745 0.122168 0.994416 -1.093806 0.186578-3.568521 -2.490338 0.048158 1.008422 -1.219885 0.175365-3.353916 -2.632947 -0.110206 1.007828 -1.194781 0.178423-3.059422 -2.561820 0.509291 1.010351 -1.147452 0.191510-3.124169 -3.056935 0.493398 1.087695 -1.180939 0.198336-3.061490 -3.210785 0.666303 1.106396 -1.171197 0.208128-2.937557 -3.058373 0.879618 1.110026 -1.205548 0.206622-1.906821 -3.078293 0.531342 1.083582 -1.083351 0.206398-2.600206 -2.789160 0.431415 1.049878 -1.198734 0.203115-3.324440 -3.017448 0.019561 1.079174 -1.356257 0.189957-3.117920 -3.200187 -0.006456 1.088018 -1.321301 0.192924-2.763246 -2.910756 0.466703 1.051448 -1.199663 0.210217-2.768562 -3.159425 0.540693 1.075338 -1.202840 0.211690-2.525521 -3.108684 0.644315 1.067823 -1.172599 0.213158-3.154071 -3.347299 0.305310 1.082333 -1.272294 0.205698-3.061041 -2.985473 0.526342 1.043555 -1.242639 0.210572-2.276056 -3.117221 0.005068 1.032650 -1.174901 0.195023-2.519980 -2.687369 -0.076430 0.969207 -1.195947 0.190414-2.638540 -2.640439 -0.310882 0.967301 -1.228409 0.182234-2.684131 -3.253575 -0.167390 1.027139 -1.186259 0.184494-2.840490 -2.964910 0.525810 1.008675 -1.162208 0.179414-2.659965 -3.485297 0.056512 1.044207 -1.137461 0.156905-2.491590 -3.098958 0.292666 0.996366 -1.089609 0.157375-3.352037 -3.086499 -0.304084 0.985472 -1.266441 0.136366-3.269577 -3.095442 -0.967044 0.962662 -1.262361 0.132404-3.412492 -3.073316 -0.599420 0.976680 -1.212428 0.151370-2.663299 -3.324121 -0.670668 0.982519 -1.116566 0.154548-3.303627 -3.406929 -0.264036 1.020237 -1.133455 0.174391-3.521413 -3.833989 -0.269524 1.066587 -1.165889 0.172673-3.516699 -3.856594 -0.241840 1.071419 -1.148454 0.175860-3.218528 -3.635495 -0.238813 1.041527 -1.089894 0.177762-3.394680 -3.567833 -1.460687 1.005238 -1.191324 0.149036-4.136795 -3.437481 -1.160029 1.002298 -1.253998 0.152764-3.619051 -3.564568 -0.738247 1.017641 -1.113557 0.157042-3.208817 -3.932324 -0.593487 1.051524 -1.016484 0.159854-3.954512 -3.881334 -0.043941 1.068860 -1.068005 0.170095-4.559946 -4.296782 0.150954 1.119624 -1.133619 0.176889-3.482153 -3.733094 -0.170917 1.017451 -0.997603 0.167122-3.736314 -3.494999 -0.684976 0.965420 -1.029530 0.157975-4.449485 -3.545009 -0.790166 0.964349 -1.117028 0.155609-4.573181 -3.508237 0.050648 0.980775 -1.055933 0.165331-4.165608 -3.927029 -0.094694 1.021226 -0.975654 0.165192-4.815841 -3.810652 0.991399 1.063109 -0.977345 0.188424-4.695566 -4.321485 0.979710 1.129545 -1.022661 0.174821-3.850667 -3.470943 0.443920 1.014156 -0.930992 0.165600-4.379625 -3.281369 -0.432136 0.997656 -1.045165 0.158602-4.547658 -3.324929 -0.624631 1.019577 -1.103473 0.164164-4.093277 -3.358328 0.119418 1.060780 -0.987878 0.185791-3.447646 -3.778355 -0.103914 1.118533 -0.902724 0.193560-4.086987 -3.875824 0.361763 1.180133 -0.972946 0.208796-4.327498 -3.858483 -0.141400 1.183247 -1.121538 0.189587-4.206727 -3.439046 -1.127345 1.126182 -1.122192 0.181571-3.836336 -2.669510 -1.598330 1.058030 -1.120812 0.179807-3.612327 -3.276496 -0.985096 1.144967 -1.043729 0.189215-3.137694 -3.437709 -0.383566 1.208674 -0.973474 0.205460-3.505415 -3.824060 -0.292307 1.276875 -1.029639 0.210409-3.507007 -2.955957 -0.963995 1.186401 -1.105151 0.198720-3.077768 -2.518496 -0.924121 1.149996 -1.051689 0.198251-3.171261 -2.373156 -1.273658 1.151535 -1.084032 0.199001-3.551958 -2.952898 -0.997528 1.239730 -1.103145 0.211092-3.495284 -3.176339 -0.592362 1.289950 -1.119385 0.209907-4.078201 -3.003991 -0.483406 1.292629 -1.188374 0.221063-4.127395 -3.333717 -0.539420 1.317781 -1.152301 0.224140-3.062990 -3.133054 -0.307642 1.290535 -1.034896 0.222617-3.692187 -3.208503 -0.973012 1.254307 -1.174006 0.208667-3.708171 -2.926734 -1.240845 1.196165 -1.185014 0.210663-3.750511 -3.306108 -0.743565 1.228028 -1.148296 0.225695-4.044356 -3.717782 -0.441590 1.241032 -1.197558 0.229818-3.436868 -4.010020 -0.270632 1.229763 -1.125598 0.226679-4.461112 -3.998717 -0.557323 1.208154 -1.244078 0.230933-3.654644 -3.616376 -0.835385 1.080335 -1.215392 0.212755-3.650282 -4.233823 -0.042161 1.058666 -1.128376 0.214134-4.393599 -4.758701 0.479096 0.989824 -1.224615 0.199833-4.248488 -4.763339 1.008859 0.840803 -1.180499 0.173640-4.457312 -4.718578 0.860659 0.719676 -1.184971 0.153471-3.909248 -4.979976 1.462513 0.619261 -1.099760 0.139000-4.002152 -5.549450 1.902103 0.593248 -1.026279 0.138118-4.945112 -6.053313 2.102166 0.540095 -1.111678 0.122483-5.201948 -5.621767 2.415486 0.410824 -1.098739 0.106478-4.909406 -5.788318 2.504376 0.336869 -0.950511 0.096263-5.389689 -5.543238 2.424778 0.255420 -0.980966 0.089204-6.063603 -6.261477 2.944534 0.374307 -0.976939 0.107755-5.707398 -6.474537 2.804671 0.370914 -0.897573 0.097591-5.367972 -6.029292 2.443923 0.295070 -0.818502 0.087855-4.872344 -6.207394 1.984329 0.308672 -0.761048 0.079690-5.256091 -6.129994 1.548060 0.299214 -0.856305 0.073468-5.665460 -6.316174 0.798824 0.327591 -0.957867 0.065605-5.184267 -6.352082 0.832798 0.352202 -0.881504 0.073243-5.491040 -6.599014 -0.103635 0.381677 -1.001436 0.060783-5.790849 -6.087094 -0.688684 0.319412 -1.078076 0.055104-5.671767 -6.019748 -0.771007 0.312736 -1.075478 0.047030-5.497149 -6.142242 -0.612534 0.321658 -1.048273 0.042123-5.152260 -6.166526 -0.889525 0.308599 -1.028911 0.025068-5.380929 -5.748622 -1.333370 0.205957 -1.145365 -0.008168-5.051229 -5.583089 -1.461106 0.162727 -1.101876 -0.017648-4.786278 -5.601335 -1.466834 0.131733 -1.054833 -0.029867-4.612082 -5.546794 -1.526887 0.086176 -1.042070 -0.048431-4.935155 -5.707223 -1.778960 0.070033 -1.120220 -0.071940-5.014517 -5.581975 -1.527298 0.028892 -1.144871 -0.091945-5.212670 -5.686959 -1.346934 0.013024 -1.179766 -0.107707-5.405785 -5.649558 -1.303299 -0.019275 -1.219013 -0.124917-5.000629 -5.480236 -1.224985 -0.070823 -1.193888 -0.141622-4.583896 -5.402430 -1.123830 -0.119804 -1.163489 -0.158051-4.298517 -5.082950 -1.001492 -0.197899 -1.143169 -0.168486-4.345541 -4.885727 -0.778907 -0.246000 -1.166377 -0.171983-4.142116 -4.838187 -0.639366 -0.299872 -1.156374 -0.176811-3.936136 -4.442154 -0.713003 -0.388644 -1.145573 -0.180549-3.962567 -4.291153 -0.737951 -0.449435 -1.156432 -0.182253-4.289400 -3.845835 -0.673296 -0.529244 -1.210491 -0.184350-4.402314 -3.837668 -0.521911 -0.574758 -1.200275 -0.193322-4.227595 -3.521595 -0.000743 -0.637633 -1.123173 -0.198583-5.100585 -3.408000 1.385096 -0.674073 -1.136430 -0.204532-5.433641 -3.554042 1.507227 -0.689329 -1.172954 -0.226007-4.823947 -3.277190 2.144955 -0.773774 -1.023729 -0.239926-4.627857 -2.761866 3.283254 -0.848505 -0.942301 -0.246076-4.840977 -3.040567 3.195651 -0.803670 -0.978900 -0.254390-5.024523 -2.266985 3.674311 -0.822440 -0.953365 -0.237177-4.448098 -1.894248 2.792990 -0.834485 -0.857981 -0.238406-3.969898 -1.555753 1.965411 -0.888652 -0.781578 -0.243185-4.674680 -1.398733 1.598084 -0.907683 -0.896828 -0.248902-4.008684 -1.449875 1.265208 -0.908257 -0.802551 -0.250498-4.163054 -1.468192 1.522618 -0.882901 -0.786273 -0.240729-4.516634 -1.880475 1.261051 -0.815051 -0.860978 -0.249631-4.112274 -1.668124 1.147098 -0.827414 -0.825571 -0.258396-4.709327 -1.654426 0.479247 -0.810679 -0.951744 -0.274206-3.477345 -1.162914 -0.451579 -0.883040 -0.837951 -0.289374-3.831776 -0.849621 -0.163763 -0.876981 -0.854094 -0.279073-3.910638 -1.035573 -0.467104 -0.828685 -0.883952 -0.280023-3.817888 -1.119795 0.171119 -0.768297 -0.847905 -0.264796-3.635254 -0.834553 -0.490469 -0.782325 -0.847046 -0.266418-3.654778 -0.463270 -0.780286 -0.810099 -0.884407 -0.267796-3.583856 -0.075628 -1.558076 -0.856398 -0.920534 -0.276056-3.806479 0.299193 -1.515868 -0.873106 -0.930422 -0.264795-4.242430 -0.260714 -1.043349 -0.777132 -0.927486 -0.250459-3.962466 -0.714560 -0.081623 -0.722381 -0.810193 -0.239037-3.612025 -0.838167 0.204690 -0.746664 -0.752692 -0.250750-3.927829 -0.581105 0.211397 -0.787989 -0.833164 -0.261106-4.183434 -0.357074 -0.539192 -0.859210 -0.945410 -0.281124-3.525242 -0.247033 0.086466 -0.837393 -0.838491 -0.256245-3.422527 -0.421017 0.854681 -0.776378 -0.829567 -0.235237-4.206260 -1.368203 1.188595 -0.628966 -0.924919 -0.215835-3.022475 -0.561671 1.379766 -0.715240 -0.812632 -0.217464-2.852727 0.432165 0.330865 -0.868206 -0.868214 -0.240465-3.264573 0.143456 0.073705 -0.844484 -0.938892 -0.242789-2.888631 0.174497 0.236724 -0.859989 -0.910330 -0.247252-3.269662 -0.464955 0.156770 -0.777073 -0.967445 -0.252860-4.103782 -0.380998 0.205925 -0.758362 -1.064509 -0.255973-3.553502 -0.271779 0.543380 -0.755200 -0.964196 -0.253407-3.572835 -0.633945 0.092561 -0.702939 -1.015844 -0.265731-4.500465 -0.197488 -0.549222 -0.736387 -1.179186 -0.272644-4.251541 -0.037244 -0.773976 -0.749525 -1.173729 -0.273657-3.725690 0.254567 -0.446449 -0.771933 -1.077253 -0.260872-3.776622 0.074905 -0.244637 -0.741134 -1.065037 -0.253193-3.312412 -0.595781 -0.157167 -0.649869 -1.023906 -0.255936-3.395317 0.014535 -0.127342 -0.708399 -1.075566 -0.263757-3.258029 0.377188 -0.218391 -0.751639 -1.033852 -0.263587-2.739856 0.025179 0.129431 -0.709632 -0.960694 -0.264505-3.022082 -0.243545 0.504083 -0.671717 -1.002714 -0.266209-3.641035 -0.085396 0.159489 -0.696683 -1.131752 -0.282705-3.641373 0.079559 0.279583 -0.702145 -1.068246 -0.270933-2.542059 0.396170 0.536019 -0.739147 -0.935254 -0.268731-2.794016 0.059433 0.384476 -0.690448 -0.965329 -0.264140-3.589825 0.335871 -0.149148 -0.709993 -1.134846 -0.275543-3.178702 0.811991 0.220169 -0.747860 -1.056656 -0.262010-2.782716 0.720839 0.208217 -0.711112 -1.006189 -0.256473-2.564919 0.725287 0.015154 -0.707439 -1.002375 -0.260359-2.798057 1.184175 0.039127 -0.732092 -1.051668 -0.261111-3.470225 0.739481 0.194010 -0.665087 -1.087629 -0.256621-2.319430 0.805697 0.482307 -0.662053 -0.909054 -0.252605-2.554778 0.709912 -0.305591 -0.680460 -1.002543 -0.282585-4.346981 0.643833 -0.288354 -0.631315 -1.205340 -0.282607-3.342851 0.700948 0.314395 -0.634298 -1.039778 -0.269477-3.624590 0.324444 0.045253 -0.587562 -1.084095 -0.266506-4.190107 0.297455 -0.073617 -0.567716 -1.181997 -0.266948-3.174371 0.770614 0.167507 -0.615078 -1.033755 -0.253109-3.231518 0.972952 0.156208 -0.622079 -1.052288 -0.246607-3.088271 0.658116 0.020013 -0.591845 -1.039498 -0.246994-2.712095 0.851118 -0.374039 -0.641011 -1.024078 -0.260191-3.193237 0.914320 -0.222136 -0.664546 -1.015282 -0.257315-3.366680 1.126834 0.258078 -0.693954 -1.022778 -0.264602-2.772649 0.279154 -0.131739 -0.620280 -0.919717 -0.271592-3.771693 0.658349 -0.139239 -0.652459 -1.080493 -0.288332-4.052339 0.716018 0.171836 -0.634364 -1.080424 -0.281254-3.486389 0.605709 0.125138 -0.621374 -1.014859 -0.282239-3.456280 0.843652 -0.132140 -0.638681 -1.049022 -0.286031-3.201811 0.908298 -0.652962 -0.653710 -1.048257 -0.288227-2.856817 1.401343 -0.089216 -0.688540 -0.965163 -0.271852-2.343479 1.730640 -0.125808 -0.716140 -0.942085 -0.282100-2.922186 0.956081 -0.485776 -0.607616 -1.014680 -0.290114-2.855649 1.687489 -0.208813 -0.649798 -1.033334 -0.293037-2.568814 1.580211 0.085085 -0.626216 -0.938755 -0.284341-2.934619 1.229385 0.261096 -0.543900 -0.970989 -0.284156-2.974980 1.052380 -0.005634 -0.522621 -1.034036 -0.304544-3.655667 1.076617 -0.239080 -0.513897 -1.110724 -0.313275-3.343165 1.530037 -0.235671 -0.567226 -1.052875 -0.306280-2.210657 1.136361 0.323636 -0.496636 -0.850485 -0.263353-3.141905 1.088744 -0.051229 -0.453490 -0.993569 -0.262463-3.446145 1.386241 -0.009037 -0.454746 -1.049154 -0.267091-3.157416 1.661726 -0.299274 -0.454946 -0.989622 -0.265575-2.933639 1.994002 -0.455442 -0.454216 -0.921244 -0.258935-3.369003 1.693104 0.408899 -0.376138 -0.908490 -0.246765-3.191460 1.525190 0.407126 -0.313841 -0.887799 -0.256931-3.656140 1.625047 -0.211533 -0.310777 -0.947982 -0.276802-3.721164 2.173977 -0.038926 -0.336882 -0.939102 -0.284524-2.764966 2.270948 -0.626391 -0.347121 -0.846209 -0.300121-3.182607 2.269011 -0.769900 -0.336274 -0.880572 -0.304657-3.537513 2.379091 -0.137019 -0.319603 -0.899418 -0.302882-3.537748 1.538041 0.012269 -0.213818 -0.901597 -0.308077-2.709429 1.661480 -0.150252 -0.244878 -0.801310 -0.309457-3.085743 2.010821 -0.398254 -0.289325 -0.883271 -0.323011-3.276788 1.849843 -0.831948 -0.292032 -0.973834 -0.342065-2.647239 2.156906 -1.049529 -0.348885 -0.923443 -0.340706-2.539619 1.877967 -1.097250 -0.331372 -0.894543 -0.328524-2.659790 1.832798 -0.670719 -0.316407 -0.894580 -0.315609-2.691237 1.539531 -0.629195 -0.286696 -0.922595 -0.317616-2.355757 1.766839 -0.680691 -0.318326 -0.877371 -0.310921-2.290638 2.160401 -0.830375 -0.386778 -0.902735 -0.323919-2.598365 2.065441 -1.123578 -0.394609 -0.981899 -0.342908-2.829055 2.069739 -1.426853 -0.416227 -1.052409 -0.362652-2.278334 2.024899 -0.942745 -0.435633 -0.926504 -0.352339-2.083597 1.886750 -0.670139 -0.434324 -0.901560 -0.357644-2.645491 1.856117 -0.397490 -0.448152 -0.983456 -0.369614-3.154113 1.522863 -0.545293 -0.424750 -1.066583 -0.382918-2.826985 1.458905 -0.586568 -0.426575 -1.020555 -0.378767-1.951890 1.678050 -0.290504 -0.475566 -0.889033 -0.360071-2.064125 1.736856 -0.152103 -0.482474 -0.895711 -0.347011-2.591496 1.555430 -0.269904 -0.478390 -0.992641 -0.347201-2.716139 1.424162 0.010271 -0.477338 -0.986491 -0.333397-2.704165 1.091874 0.309280 -0.453764 -0.940550 -0.317212-1.829734 1.059803 0.447163 -0.483338 -0.825461 -0.309158-2.033442 1.269149 0.455891 -0.526726 -0.856078 -0.317224-2.898118 1.366331 0.256674 -0.553049 -1.001536 -0.339481-2.782227 1.275781 0.375303 -0.573428 -0.966153 -0.342709-2.764401 0.978766 0.419382 -0.553781 -0.933289 -0.340349-2.234688 1.131214 0.533588 -0.600991 -0.833372 -0.339073-2.367980 1.128127 0.568258 -0.609689 -0.853245 -0.345518-3.169473 1.160655 0.159773 -0.630318 -0.989927 -0.368650-3.351015 1.257411 -0.003186 -0.663674 -1.020456 -0.375140-3.074034 1.114457 -0.063259 -0.675418 -0.967983 -0.369829-2.845986 1.155007 -0.059621 -0.714487 -0.940953 -0.369085-2.437223 1.074686 -0.034784 -0.738321 -0.907729 -0.362860-2.791871 1.034481 -0.055734 -0.766845 -0.963222 -0.364934-2.958304 0.872072 -0.124555 -0.780287 -1.006858 -0.366795-2.560344 0.862169 -0.164641 -0.818976 -0.946232 -0.360158-2.349877 0.936302 -0.231935 -0.863540 -0.914990 -0.359564-2.149003 0.650789 -0.203139 -0.853924 -0.888062 -0.356217-2.698468 0.351447 -0.093594 -0.827709 -0.938220 -0.357950-2.943739 0.064864 0.059061 -0.825789 -0.951563 -0.360819-2.857552 0.175885 0.121304 -0.865094 -0.917720 -0.358169-3.039169 0.179232 -0.009478 -0.883459 -0.951628 -0.351140-2.400225 0.031059 -0.239216 -0.898194 -0.881741 -0.334051-2.933892 0.137496 0.106331 -0.911273 -0.920869 -0.310665-3.022355 0.076083 0.478361 -0.896140 -0.939509 -0.292294-2.848063 -0.029790 0.301194 -0.895075 -0.930880 -0.278357-2.657908 0.467496 0.495395 -0.960880 -0.910213 -0.255185-2.467020 0.334225 0.517812 -0.962775 -0.914967 -0.238528-2.637461 -0.166020 0.502453 -0.916637 -0.954949 -0.218489-2.738556 0.210041 0.619488 -0.969865 -1.013005 -0.208603-2.744969 0.098391 0.394041 -0.955631 -1.045066 -0.191934-2.250746 0.281979 0.011785 -0.994937 -1.027529 -0.188968-2.167304 0.400018 -0.172327 -1.005026 -1.055655 -0.190236-1.744159 0.026526 -0.305459 -0.961535 -0.987449 -0.176807-1.630138 0.175343 0.672133 -0.945707 -0.972677 -0.157582-1.685653 -0.416278 0.193102 -0.847269 -1.044378 -0.161071-2.007166 0.125525 -0.064633 -0.842893 -1.175774 -0.167950-1.021994 0.432114 -0.517336 -0.862513 -1.101693 -0.162639-1.329824 0.579352 -0.481691 -0.808051 -1.138816 -0.145968-1.323613 0.412960 -0.346528 -0.722423 -1.261279 -0.162606-1.865105 0.151728 -0.221335 -0.577914 -1.399387 -0.163034-1.310043 0.733441 -0.383209 -0.614723 -1.372353 -0.161189-0.577616 1.268749 -0.098414 -0.605638 -1.309198 -0.146365-0.472847 1.281153 -0.430110 -0.545066 -1.394992 -0.161328-1.132505 0.895121 -0.904352 -0.436787 -1.598051 -0.200708-1.228650 1.472007 -0.764819 -0.449804 -1.673799 -0.215897-0.916029 1.013643 0.071000 -0.339565 -1.565002 -0.189104-0.654175 0.781178 -0.008094 -0.274154 -1.631974 -0.216903-1.249835 0.637382 -0.467985 -0.249193 -1.844324 -0.269576-1.713728 1.067871 -0.666071 -0.261801 -1.957364 -0.297340-1.292164 1.221341 0.262654 -0.269499 -1.866260 -0.279166-0.829887 0.114031 0.442183 -0.128436 -1.830402 -0.282880-1.623150 0.202988 0.365657 -0.127782 -2.020136 -0.316190-1.579181 0.308591 0.580123 -0.125617 -1.984318 -0.311845-1.012000 0.725818 0.884519 -0.162070 -1.900090 -0.305602-1.248877 0.364589 0.162149 -0.121599 -1.980166 -0.340427-2.193585 0.497762 0.240673 -0.104342 -2.081149 -0.354451-1.848232 0.551436 0.948477 -0.089291 -1.915250 -0.326623-1.659694 0.455483 0.875597 -0.056184 -1.797959 -0.314831-2.182759 0.894939 0.566902 -0.099584 -1.843769 -0.352527-3.124886 0.957761 0.523304 -0.082954 -1.816901 -0.373351-3.774337 1.678592 1.029443 -0.136282 -1.687651 -0.366269-3.659530 1.195142 2.082393 -0.045124 -1.438934 -0.348498-4.701065 0.931038 2.589037 0.022173 -1.432111 -0.339946-5.658631 1.236468 2.877601 0.019294 -1.465104 -0.345519-5.378910 1.370588 2.410621 0.001408 -1.327815 -0.333029-5.076238 1.517537 2.608229 -0.029978 -1.137485 -0.298205-5.218977 1.100275 2.424201 -0.007312 -1.160235 -0.309457-5.792681 0.916950 1.949417 -0.006118 -1.239709 -0.319621-6.106731 0.945258 1.338438 -0.021742 -1.303053 -0.322149-5.670259 0.743841 1.479847 0.003968 -1.199452 -0.276108-4.931243 0.478855 0.740741 0.024418 -1.173576 -0.268455-5.216875 0.720366 0.190574 0.001522 -1.257866 -0.274343-5.305971 0.836019 -0.499168 -0.012479 -1.312319 -0.291293-4.796264 0.973433 -0.994908 -0.041612 -1.279071 -0.302998-4.090449 0.696980 -0.711913 -0.009012 -1.133691 -0.283884-4.691786 0.062136 -0.782637 0.051883 -1.269547 -0.316620-5.163689 -0.214205 -1.190005 0.062647 -1.402580 -0.351342-4.792370 -0.154694 -1.799870 0.031878 -1.356598 -0.362843-4.481375 -0.160496 -2.388869 0.013653 -1.329315 -0.374645-4.818402 -0.411874 -2.358353 0.058111 -1.376683 -0.383697-5.363990 -0.843477 -2.168751 0.118740 -1.460499 -0.392703-5.600192 -1.090651 -2.045768 0.160873 -1.481656 -0.378541-5.062025 -1.101275 -2.043887 0.157747 -1.376649 -0.352225-4.647323 -0.980480 -1.824515 0.130819 -1.340289 -0.344309-4.594347 -0.921828 -1.515008 0.097829 -1.334905 -0.341568-4.341146 -1.083342 -0.544521 0.047314 -1.292929 -0.323972-4.400730 -1.400522 -0.061429 0.053826 -1.285444 -0.312337-4.731088 -1.926687 0.407781 0.057822 -1.310420 -0.299196-5.104221 -2.391204 0.940038 0.039661 -1.337925 -0.286391-5.194950 -2.734570 1.181492 -0.009222 -1.330519 -0.273964-5.114234 -2.616479 0.715913 -0.058441 -1.299079 -0.251333-5.047396 -2.399456 0.335438 -0.117548 -1.290437 -0.226252-4.971680 -2.348276 -0.056302 -0.134412 -1.311426 -0.200958-4.906338 -2.480571 -0.261196 -0.121520 -1.302742 -0.168840-4.447619 -2.290981 -0.364091 -0.156527 -1.243530 -0.141128-4.061434 -2.035589 -0.640690 -0.193103 -1.203159 -0.122986-3.818377 -1.844568 -0.793396 -0.230115 -1.179284 -0.109536-4.074573 -1.926575 -0.981680 -0.222872 -1.223399 -0.106437-4.198396 -2.147957 -0.954046 -0.191507 -1.218833 -0.092082-4.380983 -2.245947 -0.748584 -0.170279 -1.211080 -0.072880-4.001010 -2.269243 -0.569126 -0.155129 -1.109516 -0.033123-3.738117 -2.179789 -0.610473 -0.161541 -1.056961 -0.021401-3.361878 -2.114258 -0.576813 -0.168670 -0.980566 -0.008607-2.962689 -2.106685 -0.510149 -0.164810 -0.884306 0.006098-2.921213 -1.942538 -0.372837 -0.157525 -0.810120 0.018963-3.214574 -1.942618 -0.241572 -0.120802 -0.780042 0.021808-3.258927 -1.824513 -0.195445 -0.107872 -0.713739 0.024971-3.548521 -1.836523 -0.050175 -0.089014 -0.663361 0.027098-3.783087 -1.872123 0.164084 -0.076439 -0.614894 0.029790-4.221471 -1.910204 0.436320 -0.074690 -0.589633 0.035175-4.615135 -2.001305 0.552217 -0.070925 -0.607148 0.032319-3.937130 -1.849230 0.677472 -0.107312 -0.483124 0.047019-3.979454 -1.847635 0.470575 -0.116340 -0.497229 0.047561-4.268813 -1.973552 0.487736 -0.121425 -0.550572 0.044927-3.878873 -1.991077 0.533539 -0.126490 -0.533274 0.054034-3.278791 -1.914952 0.430725 -0.151907 -0.470279 0.066412-3.413655 -1.785256 0.352314 -0.159466 -0.543578 0.058433-3.059349 -1.818845 0.236515 -0.134818 -0.567707 0.049692-3.411066 -1.923935 0.121027 -0.118571 -0.621456 0.036102-3.257335 -1.844547 -0.028157 -0.105802 -0.646216 0.027854-2.611379 -1.705897 -0.219056 -0.103661 -0.611063 0.027082-2.556495 -1.530857 -0.501248 -0.104288 -0.663880 0.021268-2.113965 -1.383486 -0.815477 -0.100913 -0.649160 0.026530-2.016545 -1.367773 -0.878698 -0.082446 -0.663115 0.039029-2.156639 -1.255249 -1.051193 -0.080244 -0.718383 0.039632-1.683343 -1.093433 -1.422914 -0.098395 -0.696507 0.047427-1.500127 -0.910730 -1.429454 -0.114025 -0.691960 0.057588-1.901089 -0.964891 -1.479702 -0.101103 -0.770706 0.055137-1.375180 -0.837685 -1.267922 -0.121251 -0.690494 0.061595-1.410973 -0.666674 -1.358379 -0.150664 -0.707280 0.037550-1.669116 -0.560309 -1.487529 -0.172589 -0.765433 0.012518-1.562653 -0.549103 -1.405881 -0.180101 -0.761840 0.000647-1.556576 -0.614925 -1.286371 -0.178485 -0.753331 0.004436-1.880997 -0.733811 -0.912182 -0.167406 -0.792048 0.007886-1.908050 -0.843244 -0.527741 -0.164607 -0.794498 0.012408-1.592436 -0.591611 -0.630871 -0.220443 -0.779615 0.010534-1.788392 -0.349880 0.088491 -0.253928 -0.770404 0.031387-2.093247 -0.757410 0.868524 -0.207478 -0.801601 0.042500-2.224720 -0.704285 1.200207 -0.217485 -0.800631 0.053491-1.608098 -0.319208 1.797282 -0.267957 -0.697207 0.074603-1.682123 -0.165894 1.859835 -0.295373 -0.716744 0.070094-1.779130 -0.018907 2.023853 -0.325617 -0.728935 0.064750-2.014775 -0.149169 2.222406 -0.314660 -0.742235 0.059895-1.671635 -0.135053 2.261985 -0.316310 -0.647934 0.072628-1.497321 0.046632 1.953281 -0.321545 -0.622877 0.072180-1.866393 0.138259 1.399603 -0.287477 -0.665885 0.071920-1.901206 0.173969 0.941786 -0.265409 -0.688173 0.073334-1.874727 0.267862 0.522593 -0.244187 -0.674155 0.084492-1.507180 0.399369 0.187884 -0.239310 -0.619552 0.097427-1.394049 0.517004 -0.121069 -0.235377 -0.619623 0.098815-1.608902 0.497829 -0.290260 -0.216197 -0.657171 0.094740-1.508401 0.549032 -0.412777 -0.221257 -0.631123 0.077213-1.436266 0.663279 -0.450715 -0.237277 -0.603412 0.065126-1.438002 0.693791 -0.541420 -0.249591 -0.601235 0.049978-1.760203 0.578675 -0.561352 -0.249067 -0.645846 0.034737-1.824441 0.489664 -0.357571 -0.266879 -0.640454 0.033341-1.792403 0.401867 -0.254807 -0.305008 -0.646519 0.024983-1.833447 0.348038 -0.227795 -0.339642 -0.672802 0.012245-2.050226 0.414935 -0.202461 -0.397580 -0.735709 -0.004961-1.879181 0.308295 -0.180539 -0.423350 -0.738869 -0.010378-1.795473 0.260338 -0.129113 -0.455346 -0.752095 -0.014536-1.707389 0.474749 -0.276291 -0.518583 -0.796639 -0.027273-1.532676 0.585624 -0.330444 -0.567450 -0.813523 -0.032609-1.402613 0.657340 -0.447624 -0.611821 -0.843311 -0.042264-1.495174 0.533412 -0.586040 -0.625974 -0.900284 -0.057351-1.527541 0.467438 -0.497742 -0.634804 -0.934380 -0.066990-1.644680 0.415008 -0.484984 -0.649271 -0.985104 -0.084066-1.873730 0.374407 -0.584477 -0.656060 -1.045288 -0.100739-1.981468 0.321396 -0.507655 -0.649800 -1.078061 -0.113201-1.958599 0.231589 -0.413811 -0.637649 -1.081592 -0.120054-2.023555 0.223420 -0.297059 -0.614067 -1.077631 -0.123327-2.094241 0.141309 -0.250178 -0.580281 -1.088367 -0.130834-2.094778 0.167544 -0.158357 -0.546303 -1.080225 -0.135641-2.308033 0.252470 0.118917 -0.503602 -1.074427 -0.133040-2.530333 0.291005 0.375066 -0.439335 -1.068224 -0.134682-2.877912 0.261873 0.613576 -0.367152 -1.068351 -0.135397-3.170782 0.361602 0.870911 -0.302169 -1.051008 -0.132849-3.415384 0.347874 1.377303 -0.205474 -0.999951 -0.124876-3.579038 0.343223 1.433876 -0.167455 -1.002711 -0.127362-3.635995 0.415381 1.549545 -0.123492 -0.995140 -0.125213-3.493098 0.377627 1.602969 -0.076886 -0.990454 -0.111376-3.398190 0.369088 1.363867 -0.034888 -1.016167 -0.085769-3.227920 0.233718 0.993562 0.000454 -1.028492 -0.052194-3.031780 0.207449 0.476963 0.028550 -1.058667 -0.027814-2.848696 0.103893 0.222011 0.060883 -1.074981 -0.003407-3.021666 -0.162152 0.014515 0.111051 -1.118130 0.011448-3.148205 -0.279823 -0.146040 0.138079 -1.151287 0.014125-3.097223 -0.390169 -0.332107 0.152422 -1.146038 0.016850-3.004316 -0.422694 -0.447269 0.161546 -1.136587 0.018091-3.130755 -0.478385 -0.652406 0.178499 -1.155013 0.013911-3.162323 -0.556720 -0.705314 0.201053 -1.136541 0.018636-3.193258 -0.749179 -0.492260 0.246087 -1.096507 0.029568-3.360783 -0.859950 -0.435653 0.278034 -1.091293 0.032605-3.573707 -0.931878 -0.281540 0.311647 -1.063445 0.041923-3.671693 -0.935052 -0.136960 0.333358 -1.033240 0.048117-3.716346 -0.877508 0.039510 0.350765 -0.987000 0.057204-3.847851 -0.849951 0.181297 0.370577 -0.957435 0.063164-3.873375 -0.745207 0.350751 0.377827 -0.916908 0.066243-3.928301 -0.718953 0.508706 0.393146 -0.878372 0.072291-3.872568 -0.690808 0.661767 0.406182 -0.820862 0.077838-3.860608 -0.644812 0.698980 0.405410 -0.790991 0.074708-3.898606 -0.650304 0.752981 0.423683 -0.749992 0.075207-3.931295 -0.840799 0.684759 0.460415 -0.744973 0.070870-3.984978 -0.856971 0.794809 0.492162 -0.739901 0.076162-4.012850 -0.973062 0.744053 0.523414 -0.750307 0.080674-4.001479 -1.018076 0.518914 0.552948 -0.782179 0.083079-3.801833 -0.897477 0.420967 0.548072 -0.777934 0.090670-3.597184 -1.020855 -0.118029 0.559677 -0.794544 0.091838-3.339769 -0.978905 -0.312978 0.548389 -0.782030 0.100716-3.164654 -0.968168 -0.465451 0.541337 -0.800274 0.100868-3.176738 -0.962737 -0.588189 0.538544 -0.813081 0.101567-2.930745 -0.879040 -0.742318 0.514734 -0.804536 0.096720-2.635922 -1.045631 -1.040012 0.515065 -0.781218 0.091800-2.570987 -0.972056 -0.975508 0.494385 -0.795631 0.086692-2.562366 -1.089901 -0.776310 0.496396 -0.842757 0.080564-2.558300 -1.386826 -0.981733 0.515999 -0.866444 0.077869-2.442858 -1.341601 -1.163923 0.497778 -0.887618 0.079875-2.295692 -1.350188 -1.142583 0.485409 -0.914006 0.081404-2.372821 -1.218726 -1.431715 0.455814 -0.976634 0.083142-2.261951 -1.349641 -1.539461 0.459084 -0.999397 0.092386-1.885050 -1.466525 -1.585674 0.467014 -0.982816 0.108796-1.699904 -1.412011 -1.361543 0.456518 -0.968119 0.120657-1.553243 -1.423292 -1.283833 0.462884 -0.994104 0.116344-1.621117 -1.486227 -1.249514 0.475790 -1.044671 0.106310-1.574169 -1.629739 -1.172570 0.493814 -1.043691 0.107885-1.923575 -1.887701 -1.061222 0.533878 -1.090096 0.106670-1.926291 -2.039701 -0.607493 0.559780 -1.091222 0.107092-2.236925 -2.227993 -0.459446 0.591272 -1.151521 0.094486-2.676465 -2.144193 -0.112712 0.601781 -1.193621 0.089844-2.755921 -2.439568 0.867524 0.657750 -1.171375 0.097677-2.862724 -2.780267 1.247127 0.718323 -1.187608 0.103000-2.619078 -2.634825 1.407623 0.707088 -1.159579 0.115613-2.452565 -2.315681 1.270374 0.666129 -1.206368 0.111079-2.381124 -2.043815 1.012930 0.633760 -1.246952 0.104261-2.169806 -2.074346 0.981236 0.624475 -1.210790 0.107898-2.140295 -2.386815 1.241104 0.642024 -1.171082 0.100579-2.402006 -2.622842 1.592260 0.660657 -1.186340 0.098580-2.715164 -2.785937 1.152923 0.660532 -1.224352 0.093264-2.904005 -2.677815 0.647547 0.635147 -1.273988 0.089356-3.116617 -2.793519 0.387243 0.643581 -1.333763 0.090251-3.124540 -2.931539 0.074877 0.645660 -1.331172 0.101873-2.755829 -2.875626 -0.025599 0.621194 -1.287291 0.119847-2.648563 -2.977864 0.037240 0.616052 -1.278867 0.134356-2.650179 -3.034579 0.058465 0.596453 -1.282685 0.143798-2.435945 -2.930095 -0.058753 0.540207 -1.272588 0.139471-2.431061 -2.873488 -0.135818 0.490019 -1.261403 0.115940-2.840376 -2.984030 -0.152962 0.454624 -1.319257 0.081778-2.927698 -3.196561 -0.039693 0.435669 -1.311366 0.065764-3.169682 -3.372247 0.138177 0.427198 -1.321529 0.056341-3.501514 -3.575549 0.357136 0.414510 -1.359632 0.037900-3.492819 -3.629498 0.434707 0.379069 -1.348903 0.020079-3.336212 -3.578622 0.374268 0.322342 -1.318178 -0.002670-3.196285 -3.505526 0.365853 0.271278 -1.290796 -0.022572-3.310419 -3.495162 0.416990 0.236351 -1.296879 -0.043724-3.400017 -3.438083 0.344862 0.207159 -1.305176 -0.056273-3.813587 -3.533345 0.417093 0.138786 -1.302436 -0.061701-3.835678 -3.520307 0.361448 0.118112 -1.301777 -0.063404-3.777652 -3.478542 0.331894 0.090656 -1.290665 -0.063026-3.776330 -3.498782 0.298902 0.070231 -1.287538 -0.062481-3.725064 -3.509736 0.274048 0.050368 -1.272502 -0.058430-3.683605 -3.568202 0.253931 0.037997 -1.261441 -0.052970-3.771211 -3.588153 0.331975 0.025169 -1.266489 -0.047087-3.807446 -3.639647 0.384966 0.014328 -1.272732 -0.041745-3.864836 -3.764078 0.373321 0.011571 -1.280220 -0.036801-3.867305 -3.886394 0.375156 0.008623 -1.279561 -0.024588-3.819047 -4.034388 0.392156 -0.002318 -1.277173 -0.011843-3.717231 -4.182480 0.427273 -0.013017 -1.263452 0.005107-3.542555 -4.404125 0.213710 -0.020765 -1.246140 0.024311-3.433924 -4.271219 0.268520 -0.062283 -1.244327 0.044106-3.117165 -4.298845 -0.342060 -0.117721 -1.251490 0.061502-2.952254 -4.305227 -0.374580 -0.138744 -1.226546 0.075580-2.689543 -4.267876 -0.402747 -0.173892 -1.208771 0.090338-2.800122 -4.520365 -0.042196 -0.171626 -1.209511 0.110387-2.631711 -5.028343 -0.021006 -0.157971 -1.197878 0.120898-2.649748 -5.063396 -0.030390 -0.187392 -1.236388 0.122577-2.739129 -4.994329 -0.390631 -0.230273 -1.287453 0.115731-2.652924 -4.718352 -0.604029 -0.303640 -1.316898 0.113089-2.316517 -5.231168 -0.566312 -0.266322 -1.284676 0.119610-2.531542 -5.222502 -0.381640 -0.263214 -1.289908 0.130015-2.417010 -5.307413 -0.343924 -0.260974 -1.293752 0.124022-2.279229 -5.056807 -0.077146 -0.279368 -1.299190 0.118929-2.372152 -4.951720 -0.471868 -0.276641 -1.303045 0.113618-2.217459 -4.756437 -0.467767 -0.287207 -1.281203 0.114464-2.509271 -4.919452 -0.041062 -0.224289 -1.304694 0.111399-2.908818 -5.141116 -0.122125 -0.166216 -1.350762 0.105767-2.782151 -4.951718 -0.394904 -0.165947 -1.343836 0.105012-2.843372 -5.233552 -0.386104 -0.094818 -1.351643 0.105094-2.954873 -5.012987 -0.713546 -0.085008 -1.371370 0.100129-2.463173 -5.350449 -0.158479 -0.010514 -1.232188 0.130030-2.482435 -5.193341 -0.765722 -0.001395 -1.354251 0.090953-2.925169 -4.852159 -0.945154 -0.002021 -1.439765 0.071508-2.233310 -4.719355 0.270007 -0.006679 -1.256788 0.112569-2.489738 -5.326261 -0.455042 -0.024004 -1.379879 0.067479-2.506463 -5.173647 -0.513252 -0.113031 -1.310005 0.088973-1.877890 -6.090610 0.343581 -0.096051 -1.190836 0.099881-2.776031 -7.040825 -0.561584 -0.051067 -1.367013 0.059493-2.712686 -7.055865 1.131613 -0.109894 -1.151242 0.107690-3.337074 -7.471299 1.739450 -0.101188 -1.219313 0.079689-4.425966 -7.156903 2.660474 -0.033420 -1.256071 0.082205-4.197716 -6.668789 2.449129 -0.019162 -1.247804 0.068641-3.426636 -6.359268 1.996903 0.113680 -1.137729 0.098022-2.866152 -6.565099 0.690091 0.268073 -1.080066 0.113799-2.730763 -4.921576 0.489282 0.217982 -1.122178 0.105010-2.849991 -4.502785 -0.296508 0.281087 -1.175676 0.092989-2.853754 -4.330712 -0.719986 0.347902 -1.254725 0.074748-2.433596 -4.492524 -0.187348 0.432528 -1.151756 0.097859-3.378467 -5.384553 -0.741088 0.597838 -1.393024 0.069482-3.832540 -4.876398 0.137893 0.568976 -1.433402 0.083600-3.782175 -4.746781 -0.344504 0.536634 -1.467776 0.071202-3.168688 -4.358685 -1.178880 0.447236 -1.406560 0.082272-2.921467 -3.790386 -0.792588 0.358830 -1.357341 0.113670-3.278213 -4.584299 -0.546331 0.429130 -1.354475 0.148013-1.561510 -4.667625 -1.987247 0.380176 -1.235370 0.153400-2.777902 -3.501326 -1.279768 0.242458 -1.294885 0.178969-2.757619 -3.338208 -1.571939 0.215470 -1.356573 0.163579-3.211243 -3.966590 -1.119148 0.324169 -1.394176 0.167506-3.706780 -4.499047 -1.055149 0.416167 -1.433081 0.158916-3.366944 -4.991235 -0.376870 0.503637 -1.443672 0.145463-3.879068 -5.755788 -0.601411 0.640216 -1.515216 0.127098-2.653872 -4.613818 -0.773932 0.504220 -1.449649 0.113606-3.167278 -4.552149 -1.080901 0.492580 -1.475540 0.112285-2.397812 -4.118653 -0.948510 0.427420 -1.423374 0.116357-2.592603 -4.419359 -0.595013 0.433247 -1.342627 0.154031-1.679906 -4.564846 -0.083786 0.412005 -1.155497 0.196655-2.573415 -4.762636 -0.255137 0.403218 -1.265250 0.189095-3.114802 -4.774098 -1.062465 0.379889 -1.373328 0.159102-2.765752 -4.187791 -1.856000 0.258013 -1.295977 0.149979-2.653858 -4.411982 -1.851857 0.252938 -1.297882 0.127398-3.591834 -4.315438 -0.809169 0.250851 -1.346747 0.120062-3.688847 -4.647110 -0.187159 0.291994 -1.386326 0.097212-3.093918 -4.480603 0.031179 0.262828 -1.267119 0.102224-2.295449 -4.356663 0.061785 0.241369 -1.239808 0.073103-3.340417 -4.505883 1.183351 0.322933 -1.295670 0.070465-3.532972 -5.069486 1.529981 0.394568 -1.348421 0.053127-2.610366 -4.951485 1.298913 0.376465 -1.262422 0.046987-3.338422 -4.857511 2.120478 0.366647 -1.282646 0.040471-2.875490 -4.913526 2.278443 0.351585 -1.234702 0.015127-2.890307 -4.298464 1.782554 0.228721 -1.258481 -0.030514-2.729527 -3.991770 1.973844 0.143923 -1.175028 -0.053928-2.540846 -4.086209 2.150337 0.140563 -1.132965 -0.076471-3.119414 -4.579039 2.509397 0.191642 -1.134222 -0.094954-3.555414 -5.000629 2.087966 0.245544 -1.221199 -0.136877-4.249080 -4.296935 0.967746 0.176866 -1.350613 -0.180419-4.488546 -4.232201 0.599554 0.182145 -1.348986 -0.187075-3.520070 -3.782552 -0.222521 0.136333 -1.242618 -0.195344-4.035715 -3.795168 -0.591659 0.161687 -1.267155 -0.197642-4.007698 -4.352238 0.014879 0.262016 -1.225430 -0.185413-3.149247 -3.943583 -0.073926 0.221801 -1.109767 -0.178970-3.904222 -4.088760 -0.430195 0.253779 -1.214720 -0.196432-3.216627 -3.445931 -0.991234 0.184934 -1.172376 -0.210604-3.595141 -3.491147 -1.315483 0.191131 -1.248997 -0.232283-3.529659 -3.574598 -1.275403 0.218710 -1.233340 -0.230850-4.151870 -3.962278 -1.185253 0.273849 -1.289095 -0.234522-3.596634 -3.819190 -0.559320 0.258835 -1.194014 -0.218973-3.639598 -3.500211 -0.599016 0.227643 -1.209267 -0.223036-3.885150 -3.115559 -1.166706 0.177179 -1.282443 -0.237079-3.585690 -2.946657 -1.154321 0.158220 -1.237819 -0.235988-3.790949 -2.937596 -1.201620 0.158767 -1.252470 -0.242137-3.285614 -2.775046 -0.788378 0.138731 -1.158340 -0.230076-3.990335 -2.971995 -0.932494 0.176631 -1.262480 -0.246405-4.271942 -2.697508 -0.983616 0.139921 -1.277102 -0.248470-3.777200 -2.820895 -0.718578 0.146797 -1.179069 -0.240434-4.413585 -3.004028 -0.996785 0.161915 -1.251219 -0.259342-3.725648 -2.597175 -0.441204 0.110003 -1.120772 -0.256012-4.446591 -2.953600 -1.162709 0.149365 -1.257478 -0.294972-4.923541 -2.522284 -0.766713 0.119407 -1.278931 -0.302527-4.667989 -2.830383 -0.029344 0.164465 -1.224452 -0.303807-3.659179 -2.901835 -0.505249 0.158298 -1.108667 -0.307848-4.253101 -2.585209 -0.419919 0.132201 -1.204127 -0.322683-4.468753 -2.529255 -0.032032 0.136169 -1.283101 -0.337510-3.678976 -2.195377 0.227633 0.083832 -1.203952 -0.333527-3.283674 -2.009207 0.184159 0.045017 -1.156721 -0.329132-3.040695 -1.975550 0.957496 0.037455 -1.132562 -0.321380-4.230201 -2.366737 1.747030 0.093508 -1.307449 -0.331509-4.169925 -2.439538 1.703724 0.081713 -1.303268 -0.329940-3.309077 -2.189456 1.999552 0.023939 -1.177091 -0.314357-3.427416 -2.159344 1.949115 -0.000989 -1.254673 -0.329165-4.099904 -2.202182 1.652147 -0.018088 -1.396860 -0.343174-3.486896 -2.184464 1.796666 -0.075053 -1.345222 -0.325656-3.054998 -2.384861 2.044787 -0.086728 -1.334075 -0.307577-2.890351 -2.483236 2.018705 -0.108304 -1.376477 -0.303952-2.840591 -2.411005 1.648003 -0.143695 -1.454461 -0.304692-2.606057 -2.338074 1.510688 -0.163001 -1.454116 -0.297648-2.560313 -2.285688 1.479787 -0.178772 -1.487120 -0.296223-2.789852 -2.342586 1.289862 -0.168857 -1.557819 -0.300931-2.851851 -2.392303 1.461049 -0.156073 -1.580575 -0.293867-2.821834 -2.528972 1.458946 -0.126858 -1.605351 -0.280279-2.834437 -2.436623 1.385674 -0.124973 -1.614855 -0.258816-2.520192 -2.178027 1.213693 -0.141393 -1.591641 -0.245822-2.342618 -1.945264 0.893645 -0.154117 -1.570958 -0.243035-2.099065 -1.778815 0.739190 -0.150914 -1.500817 -0.235949-2.011775 -1.829846 0.763500 -0.120316 -1.440470 -0.232472-2.192364 -1.756053 0.459613 -0.100049 -1.408762 -0.236355-2.016214 -1.322758 0.214844 -0.118321 -1.327001 -0.236951-2.018616 -1.174144 -0.199320 -0.086981 -1.268613 -0.241887-2.235879 -1.091434 -0.523559 -0.070271 -1.265352 -0.246935-2.401452 -1.070277 -0.576530 -0.049222 -1.215522 -0.245447-2.031182 -0.782635 -0.720526 -0.078692 -1.126146 -0.246251-1.339955 -0.327303 -0.799166 -0.145928 -1.008375 -0.244267-1.531632 -0.260895 -1.019746 -0.165425 -1.030092 -0.246473-1.486433 -0.209327 -0.796028 -0.187270 -1.028068 -0.233314-1.333850 -0.115273 -0.593656 -0.225029 -1.042922 -0.223175-1.069202 -0.080661 -0.612711 -0.275964 -1.061167 -0.211883-1.112790 -0.096689 -0.443716 -0.323372 -1.150130 -0.201527-1.545635 -0.304586 -0.297054 -0.343136 -1.305368 -0.186096-1.287656 -0.412795 0.059039 -0.356896 -1.352811 -0.156310-0.428812 -0.252052 0.695735 -0.392898 -1.348374 -0.105736-0.163940 -0.279286 0.883497 -0.396217 -1.386394 -0.084826-0.257898 -0.204953 1.180430 -0.408299 -1.494863 -0.068736-0.415870 -0.190250 1.467373 -0.414116 -1.561912 -0.062075-0.019728 -0.292618 1.995957 -0.408272 -1.517637 -0.049447-0.030757 -0.495986 2.021085 -0.385350 -1.553953 -0.057980-0.443425 -0.526305 1.662627 -0.377924 -1.610975 -0.074381-0.764903 -0.402195 1.681102 -0.368071 -1.597577 -0.089271-0.823484 -0.395644 1.127208 -0.339325 -1.547911 -0.116136-0.996807 -0.307049 0.756738 -0.312343 -1.485249 -0.138184-1.194521 -0.069522 0.389815 -0.257499 -1.426096 -0.170211-1.461382 0.084420 0.086281 -0.218043 -1.366825 -0.181077-1.128058 0.357965 0.177519 -0.184496 -1.214072 -0.171433-0.961040 0.278699 -0.276825 -0.123259 -1.087012 -0.165132-1.176532 0.396975 -1.031225 -0.093491 -1.055329 -0.169504-1.480645 0.572989 -1.509786 -0.071903 -1.051730 -0.168804-1.578813 0.729361 -1.598101 -0.035090 -0.988877 -0.149078-1.761900 0.513863 -2.061306 0.020720 -0.947304 -0.128012-1.639930 0.455318 -2.068595 0.060312 -0.886304 -0.102939-1.701573 0.204186 -1.766755 0.122815 -0.850629 -0.078668-1.716020 0.313923 -2.167015 0.131341 -0.823063 -0.060828-1.539120 0.328242 -2.294485 0.133011 -0.800330 -0.047487-1.440170 0.254107 -2.471639 0.155787 -0.773322 -0.038150-1.697411 -0.085602 -2.392682 0.204691 -0.806918 -0.028821-1.841760 -0.513079 -2.201213 0.272512 -0.791704 -0.011915-2.204416 -1.029091 -1.869552 0.344539 -0.814826 0.011632-2.201014 -1.358755 -1.925297 0.385390 -0.830623 0.025126-2.445938 -1.057391 -2.380900 0.349150 -0.901473 0.032117-2.065926 -0.939078 -2.522321 0.318066 -0.866946 0.048191-1.791235 -1.097541 -2.386973 0.334033 -0.825619 0.072862-1.578492 -1.384894 -2.109581 0.358605 -0.802266 0.092441-1.080878 -1.474762 -0.972703 0.366960 -0.732419 0.123344-0.990702 -1.861552 -0.665477 0.390445 -0.800997 0.124622-0.757466 -1.772239 -0.717016 0.334786 -0.883971 0.122695-0.537304 -1.811353 -0.163118 0.312688 -0.928737 0.128614-0.739120 -2.175704 0.298928 0.312257 -1.061072 0.123808-0.552795 -2.569611 1.113915 0.332652 -1.133138 0.134464-0.247811 -3.062077 1.715979 0.363696 -1.216439 0.1363710.081381 -3.497389 2.630285 0.359965 -1.255838 0.1489280.181831 -3.533628 2.918722 0.319379 -1.326993 0.1519070.328973 -3.439637 3.194182 0.305122 -1.434412 0.1551900.727310 -3.721184 3.179161 0.323155 -1.463037 0.1618430.837826 -4.017881 3.419240 0.305835 -1.424278 0.1815940.399873 -4.304323 3.275283 0.323753 -1.482146 0.189020-0.263895 -4.898298 2.803694 0.355369 -1.514401 0.194842-0.614568 -5.162097 1.962950 0.409777 -1.507851 0.203214-1.016826 -5.078430 1.837604 0.472148 -1.402315 0.232475-1.166686 -5.039550 1.388050 0.516921 -1.383764 0.234942-1.776403 -5.147509 0.882072 0.588969 -1.370479 0.240767-1.695746 -4.754910 0.519485 0.616342 -1.273308 0.245841-1.008671 -4.640095 0.187909 0.648736 -1.120433 0.244404-1.250759 -3.858962 -0.315308 0.630592 -1.128506 0.229521-1.819513 -4.151828 -1.133189 0.738277 -1.188747 0.204542-1.458943 -3.972238 -1.074783 0.778072 -1.072605 0.203813-1.609082 -3.871867 -0.876729 0.850247 -1.018346 0.200810-1.759674 -3.795596 -1.095732 0.941414 -1.012577 0.196199-2.124847 -3.120721 -0.491612 0.992378 -1.001649 0.204014-2.935661 -3.084491 -0.517395 1.081273 -1.080921 0.205772-2.857914 -2.993443 -0.068639 1.137525 -0.998381 0.220150-2.175691 -2.464325 -0.152597 1.100058 -0.896072 0.214738-1.890938 -2.327854 0.122117 1.108753 -0.820680 0.215290-3.372927 -2.248756 -0.463584 1.096107 -1.047280 0.187562-3.394231 -2.685900 -0.924554 1.108472 -1.068530 0.174103-2.628391 -2.752246 -0.857602 1.082680 -0.932467 0.178396-2.369880 -3.046885 -0.598057 1.083961 -0.871504 0.188554-3.603908 -4.305116 -0.232913 1.222500 -0.998946 0.188040-3.951239 -4.705119 -1.282360 1.220857 -1.158443 0.158039-3.299561 -4.162885 -1.563582 1.111588 -1.015506 0.169807-2.843692 -4.102376 -1.891022 1.051192 -0.951858 0.176412-2.933057 -4.608908 -1.507804 1.055306 -0.949053 0.183832-2.892986 -4.553492 -1.910038 1.013681 -0.964401 0.179340-3.005021 -4.076974 -1.967579 0.937539 -0.945368 0.191306-2.624605 -4.190936 -1.885601 0.912844 -0.901789 0.196995-3.145878 -4.429279 -2.423964 0.917693 -1.043622 0.187801-4.628701 -4.919100 -2.582286 0.987140 -1.254767 0.186723-3.422523 -4.836607 -1.523309 0.966866 -1.082977 0.196806-3.541093 -4.982159 -1.677509 0.962206 -1.145912 0.187046-3.042269 -4.811866 -1.970184 0.923753 -1.150487 0.178102-3.267324 -4.963429 -1.532968 0.922549 -1.203813 0.182761-2.734433 -4.937829 -1.306868 0.871583 -1.187524 0.181747-3.066272 -5.700847 -1.990503 0.924996 -1.281458 0.181904-2.924407 -5.279603 -2.096182 0.818832 -1.294558 0.190332-3.201215 -5.348006 -0.558046 0.843175 -1.269862 0.228125-3.451141 -5.721939 -1.346084 0.827505 -1.371189 0.226045-3.519333 -5.515714 -1.465264 0.758439 -1.379914 0.237056-2.723775 -5.654008 -0.435969 0.763417 -1.214288 0.260368-3.256911 -6.002206 -1.087018 0.769155 -1.389167 0.242437-2.707698 -5.462449 -1.036235 0.679548 -1.311461 0.241632-2.295529 -5.578851 -0.073611 0.680284 -1.226029 0.243143-2.644037 -5.617838 -0.456443 0.669870 -1.352524 0.219125-3.096949 -5.904001 0.193781 0.705969 -1.350382 0.215930-2.709343 -5.924148 1.288064 0.692817 -1.239710 0.215241-4.005926 -6.547909 1.429843 0.736761 -1.449642 0.198734-4.203358 -6.417685 1.666642 0.673183 -1.436605 0.202231-3.274185 -5.948560 2.245939 0.581346 -1.245059 0.223340-4.055408 -6.516656 1.364383 0.585907 -1.385021 0.225842-3.506799 -5.877927 0.451536 0.445358 -1.320439 0.234094-2.801422 -5.977583 0.562909 0.397926 -1.176398 0.246244-3.574913 -6.098078 -0.037526 0.364167 -1.307694 0.246833-2.907095 -6.177407 -0.399364 0.297202 -1.230508 0.236483-3.459565 -6.522471 -0.455558 0.285159 -1.274024 0.226810-3.580614 -7.301930 0.591724 0.349618 -1.216143 0.222883-3.033830 -7.689629 0.670031 0.356890 -1.170098 0.195858-3.450053 -7.887768 0.422412 0.339647 -1.236920 0.177853-3.363265 -7.598946 0.224734 0.295853 -1.232031 0.163419-3.495096 -7.887196 0.631905 0.326297 -1.181498 0.167969-2.861033 -7.965668 0.093237 0.340308 -1.153886 0.159659-4.354773 -7.909474 -0.319272 0.341545 -1.318908 0.163073-3.919946 -7.386091 -0.579723 0.290030 -1.245080 0.165165-3.380431 -6.516915 -0.600444 0.192856 -1.144609 0.164567-3.831485 -7.163856 -0.548038 0.272543 -1.161562 0.163743-4.229667 -7.435636 -0.449102 0.303615 -1.213080 0.148602-4.925732 -7.387490 -0.811788 0.279585 -1.348111 0.127502-3.990480 -6.879718 -0.746105 0.212432 -1.217413 0.113236-3.853037 -7.214511 -0.670433 0.252626 -1.252269 0.100384-3.425309 -7.267952 0.323169 0.325041 -1.186088 0.108820-3.959029 -7.459476 0.695820 0.404656 -1.287394 0.107731-3.505149 -7.370889 0.642944 0.430017 -1.303288 0.112984-3.634178 -7.027980 0.133463 0.405372 -1.336112 0.127500-3.189082 -6.523504 -0.544836 0.370517 -1.315971 0.149563-3.843136 -6.437746 -0.769270 0.443680 -1.379394 0.177348-4.082161 -6.085774 -0.505360 0.568490 -1.376584 0.203442-4.258379 -5.870260 0.043945 0.665116 -1.342238 0.200237-3.702328 -5.607975 0.327045 0.667688 -1.201834 0.186572-4.719642 -5.673165 0.283304 0.674111 -1.344501 0.167924-4.153510 -5.591256 -0.212525 0.612680 -1.310892 0.124627-4.104933 -5.606615 -0.706020 0.588986 -1.300366 0.091845-3.376092 -5.455681 -0.746740 0.562249 -1.188678 0.047739-4.342579 -6.145586 -0.347253 0.682062 -1.277019 0.011108-5.137201 -6.621921 -0.122383 0.785756 -1.335925 -0.022433-5.987791 -6.593657 0.250242 0.844223 -1.396151 -0.044749-5.850236 -6.569311 -0.111122 0.865712 -1.379204 -0.062514-4.553032 -5.543370 -0.569231 0.745823 -1.220986 -0.068322-5.220455 -4.964032 -1.312345 0.704655 -1.310834 -0.074178-4.466793 -4.603471 -1.455412 0.648815 -1.194100 -0.085482-4.180123 -4.274968 -1.081394 0.602570 -1.122080 -0.097186-4.358684 -4.494738 -0.779342 0.632438 -1.129367 -0.110409-4.382098 -4.624321 -0.385929 0.645396 -1.116383 -0.124616-5.492424 -4.930142 -0.892743 0.659408 -1.280602 -0.143317-5.441612 -4.858645 -0.954901 0.627124 -1.268325 -0.152783-5.154106 -4.800774 -0.938380 0.578293 -1.217652 -0.166153-4.536413 -4.705044 -0.941388 0.518011 -1.136703 -0.182242-5.222153 -4.954966 -1.038388 0.527811 -1.228443 -0.188588-5.072487 -5.298496 -0.329677 0.568658 -1.180782 -0.176990-5.154252 -5.600519 0.085457 0.611788 -1.205252 -0.162866-5.055665 -5.564606 -0.114503 0.594703 -1.204618 -0.152752-4.778549 -5.267566 -0.269813 0.547136 -1.203597 -0.151150-5.376646 -5.372587 -0.340043 0.563282 -1.295865 -0.150016-5.306885 -5.355926 0.018011 0.561664 -1.266378 -0.146774-5.005579 -5.362932 0.562407 0.562426 -1.218944 -0.149843-4.833536 -5.204641 0.694091 0.534443 -1.209766 -0.157473-4.879056 -4.828069 0.669808 0.481410 -1.225564 -0.167066-4.690340 -4.515272 0.590083 0.432790 -1.210929 -0.180188-4.749269 -4.383188 0.395566 0.409419 -1.224442 -0.190744-5.083979 -4.310878 0.594242 0.408408 -1.232688 -0.190462-4.930410 -4.263570 0.899613 0.399334 -1.174217 -0.188603-5.214482 -4.239929 0.803234 0.379213 -1.184768 -0.185694-5.250117 -4.002411 0.729151 0.329164 -1.170668 -0.175645-5.134429 -3.678836 0.695309 0.217354 -1.133983 -0.159745-4.727039 -3.426384 0.774406 0.165868 -1.065293 -0.161605-4.380457 -3.205995 0.779492 0.113542 -1.023697 -0.167732-4.333816 -3.175804 0.754969 0.089633 -1.013906 -0.173607-4.347330 -2.888180 0.634861 0.025139 -1.024843 -0.183332-4.051465 -2.680930 0.784765 -0.024688 -0.970115 -0.189006-3.996322 -2.460692 0.727680 -0.080226 -0.963107 -0.193611-4.136321 -2.150844 0.833138 -0.134851 -0.977496 -0.191708-3.349729 -1.786576 0.566993 -0.221015 -0.895530 -0.199141-3.716686 -1.336751 0.411753 -0.300822 -0.955778 -0.195383-3.648544 -1.401485 0.335851 -0.325787 -0.965635 -0.196688-3.343800 -0.903530 0.406816 -0.409382 -0.929158 -0.192608-3.608025 -0.563610 0.029696 -0.468697 -1.016424 -0.193777-3.022445 -0.432424 -0.097805 -0.503379 -0.988161 -0.196214-2.933493 -0.190765 0.317498 -0.517437 -0.995565 -0.186856-2.915874 0.057799 -0.282688 -0.563923 -1.054306 -0.185455-2.507563 0.273796 0.064716 -0.572828 -1.014928 -0.179191-2.528309 0.431837 0.428041 -0.558384 -1.049034 -0.174100-2.656811 0.258495 0.318761 -0.512921 -1.065335 -0.175507-1.985275 0.595552 -0.005529 -0.533484 -1.008336 -0.183980-2.680779 0.972207 0.164399 -0.488996 -1.095855 -0.187162-2.918654 1.381483 -0.778178 -0.454282 -1.147996 -0.204555-3.112970 1.324209 -0.768988 -0.335857 -1.102376 -0.211516-2.244444 1.387155 0.099261 -0.216877 -0.880634 -0.221225-2.586706 1.545832 0.182558 -0.115289 -0.874957 -0.234173-3.265780 1.788849 -0.220383 -0.018063 -0.951711 -0.258844-3.661543 2.628690 -0.395420 0.075196 -0.957302 -0.276165-2.728482 3.407535 -0.622652 0.050827 -0.830574 -0.284601-2.441260 4.104109 -0.520112 0.122385 -0.737135 -0.286294-2.792060 4.488348 -0.096136 0.254427 -0.745388 -0.286641-3.875536 4.400211 0.152106 0.443902 -0.869932 -0.288773-3.279877 5.311779 0.969005 0.516512 -0.709497 -0.274854-2.674712 5.946724 1.265133 0.571838 -0.634724 -0.275647-3.535461 6.590842 0.128384 0.597829 -0.801700 -0.293270-3.733731 6.684657 -0.388210 0.682662 -0.852202 -0.308348-3.136731 7.664418 -0.042232 0.651189 -0.743003 -0.307102-2.672171 7.500291 0.670733 0.741140 -0.663018 -0.299308-4.028756 7.061988 1.113469 0.902410 -0.932328 -0.274775-4.161580 6.962949 1.559735 0.975088 -0.998173 -0.263549-3.763187 7.653130 0.924733 0.925611 -1.052512 -0.262177-2.293599 8.248209 0.577041 0.865082 -0.909194 -0.256167-2.687167 8.327492 1.317420 0.911555 -0.979605 -0.241380-3.216811 7.324740 1.231462 1.041255 -1.107050 -0.254977-2.973222 7.487065 2.002398 1.043893 -1.011350 -0.247392-2.746681 7.655515 1.284962 1.018440 -1.032896 -0.278752-2.189231 8.227141 0.452937 0.943011 -0.962458 -0.301642-3.035851 8.427331 0.412069 0.966631 -1.010464 -0.312006-3.593354 7.757582 0.791001 1.101050 -1.014400 -0.323194-3.281467 7.728398 1.411446 1.174065 -0.866848 -0.324769-3.104951 8.163892 1.152093 1.176852 -0.803677 -0.318813-3.191517 8.575230 0.490981 1.165579 -0.814467 -0.323309-2.723932 9.099553 -0.215434 1.117253 -0.759242 -0.329101-2.930239 9.130248 -0.414681 1.125562 -0.755363 -0.327820-2.825685 8.897224 -0.278362 1.158509 -0.721071 -0.330321-2.775898 8.670797 -0.012403 1.174748 -0.699665 -0.333834-2.728393 8.428513 0.089525 1.182022 -0.716049 -0.338026-2.974708 8.090562 -0.200152 1.174871 -0.810999 -0.347920-2.728090 7.984528 -0.565916 1.118036 -0.830095 -0.355064-2.747636 7.543112 -0.773973 1.094624 -0.855732 -0.356403-2.968703 6.972910 -0.648342 1.103723 -0.905759 -0.353843-3.199677 6.607703 -0.435196 1.110762 -0.944785 -0.348114-3.051244 6.309098 -0.448809 1.090400 -0.944513 -0.338690-2.589990 6.133114 -0.660293 1.051168 -0.914391 -0.326163-2.696547 5.834551 -0.751588 1.044261 -0.944864 -0.319083-2.961821 5.656994 -0.796091 1.021401 -1.001853 -0.313472-2.564983 5.607839 -0.718863 0.975031 -0.946749 -0.304389-2.115157 5.657151 -0.646210 0.934179 -0.893044 -0.298977-2.194588 5.597724 -0.751476 0.919720 -0.934118 -0.296570-2.490929 5.535164 -0.704017 0.922379 -0.988345 -0.286797-2.244539 5.718454 -0.706134 0.898088 -0.963648 -0.275291-1.739204 5.927354 -0.715591 0.871663 -0.901661 -0.260226-1.787095 5.835723 -0.564695 0.896807 -0.916749 -0.246364-1.973067 5.649366 -0.454229 0.939693 -0.953702 -0.233455-1.858799 5.690216 -0.444438 0.936678 -0.933213 -0.230935-1.697610 5.763421 -0.410460 0.927908 -0.903928 -0.227751-1.649803 5.699160 -0.422298 0.936072 -0.899552 -0.227651-1.931889 5.500153 -0.412174 0.966413 -0.927509 -0.228379-2.047271 5.263003 -0.144070 1.007117 -0.921709 -0.228160-2.115662 5.075663 0.090119 1.045661 -0.916989 -0.229656-2.186724 5.036510 0.132104 1.062217 -0.926874 -0.233845-2.218639 5.087872 -0.013326 1.059528 -0.947351 -0.243025-2.301504 5.098407 -0.120712 1.057875 -0.973434 -0.254744-2.412885 5.022434 -0.116850 1.067944 -0.997121 -0.268908-2.434767 4.993302 -0.011883 1.073512 -1.000555 -0.281139-2.442180 5.030715 0.096807 1.071325 -1.002249 -0.290026-2.449686 5.097498 0.112506 1.064759 -1.016095 -0.295406-2.464954 5.192060 0.042345 1.054669 -1.027259 -0.298002-2.611530 5.217219 -0.033620 1.056302 -1.050308 -0.300165-2.523391 5.275946 0.001657 1.050630 -1.035580 -0.302756-2.386372 5.370543 0.014017 1.041202 -1.008308 -0.306109-2.400268 5.327773 -0.021188 1.047859 -1.007230 -0.311556-2.539295 5.184180 -0.003393 1.067354 -1.016060 -0.318441-2.590679 5.111793 0.036555 1.078206 -1.008602 -0.322544-2.681384 4.950847 0.065837 1.102268 -1.012582 -0.328550-2.836970 4.845095 0.066709 1.122844 -1.027326 -0.331968-3.033073 4.680677 0.044447 1.150288 -1.051536 -0.336865-3.161751 4.496901 0.007392 1.175665 -1.066063 -0.340541-3.346923 4.331440 0.041152 1.197444 -1.081357 -0.342417-3.480033 4.166858 0.134896 1.216310 -1.097238 -0.343763-3.601933 4.081018 0.132913 1.223431 -1.113192 -0.344910-3.566761 4.100302 0.081282 1.219683 -1.115791 -0.345156-3.592070 4.080902 0.040862 1.223232 -1.128701 -0.344493-3.659717 4.116531 0.055391 1.218691 -1.142638 -0.342253-3.691457 4.150277 0.079431 1.208171 -1.148263 -0.340775-3.685311 4.183849 0.156844 1.193804 -1.145113 -0.338028-3.654505 4.231703 0.116556 1.169570 -1.143390 -0.335596-3.529665 4.280099 0.066168 1.135320 -1.124159 -0.329788-3.490942 4.283427 0.019836 1.089569 -1.107256 -0.322198-3.386031 4.266367 -0.082503 1.023779 -1.069740 -0.314506-3.324185 4.200022 -0.179037 0.956392 -1.038142 -0.310312-3.329182 4.031812 -0.226511 0.873576 -1.017865 -0.307549-3.378641 3.817902 -0.251456 0.805784 -1.006514 -0.304802-3.515072 3.507375 -0.188517 0.744823 -1.011693 -0.304363-3.327306 3.276487 -0.198037 0.687175 -0.986412 -0.306905-3.608394 2.934951 -0.142703 0.644628 -1.014545 -0.311034-3.643682 2.760359 -0.130556 0.596851 -1.023880 -0.314938-3.690890 2.574865 -0.120234 0.542507 -1.036804 -0.319473-3.854473 2.447853 -0.139551 0.479757 -1.068449 -0.323847-3.859899 2.395391 -0.223289 0.360302 -1.085646 -0.326018-3.710012 2.451767 -0.274437 0.290007 -1.075103 -0.326253-3.539241 2.364346 -0.413813 0.174785 -1.061861 -0.326971-3.401887 2.433018 -0.439836 0.047682 -1.043354 -0.323127-3.602496 2.221347 -0.586259 -0.058882 -1.084178 -0.322770-3.496108 2.027340 -0.534780 -0.158985 -1.076262 -0.320382-3.349441 1.591570 -0.456329 -0.239836 -1.046355 -0.317628-3.308160 1.458857 -0.391657 -0.328762 -1.055958 -0.313219-3.247538 1.213867 -0.373453 -0.389213 -1.072339 -0.310384-3.191401 0.800880 -0.666360 -0.437653 -1.106106 -0.310108-3.180799 0.998979 -0.437545 -0.542706 -1.108431 -0.288173-2.416056 0.681566 -0.253789 -0.571030 -1.007577 -0.274767-2.472766 0.415987 0.259456 -0.594569 -1.031965 -0.256078-2.391564 0.347715 0.141882 -0.652235 -1.076579 -0.248642-2.463204 0.057097 -0.120187 -0.670029 -1.125462 -0.244262-2.806279 0.445164 -0.275078 -0.756800 -1.241273 -0.242534-2.172705 0.460975 -0.351598 -0.809123 -1.164551 -0.240849-1.979830 0.037088 0.372054 -0.767271 -1.103751 -0.234154-2.778324 -0.741103 0.971506 -0.679480 -1.225569 -0.246298-3.211564 -0.894339 1.460140 -0.652556 -1.256666 -0.247677-3.156032 -0.817714 0.999652 -0.666212 -1.303097 -0.268285-2.762324 0.095880 0.591509 -0.762591 -1.223918 -0.270469-3.005437 0.020286 0.861929 -0.672336 -1.179340 -0.270196-2.525344 0.057236 0.790391 -0.536870 -1.072737 -0.274429-2.850298 0.879306 1.326212 -0.426213 -0.999374 -0.263830-3.157789 1.366539 0.939489 -0.305843 -1.018778 -0.273332-3.417417 2.579663 1.176187 -0.292436 -0.965062 -0.262440-2.986341 3.007030 1.333648 -0.183327 -0.837913 -0.266495-2.976793 3.165923 1.282280 -0.047674 -0.781059 -0.274390-2.654416 4.073921 1.485935 0.013369 -0.682542 -0.279827-3.642913 4.582072 1.153295 0.112296 -0.784418 -0.297486-4.194152 4.785740 2.010470 0.282781 -0.761918 -0.297570-4.068490 4.990732 2.296494 0.396035 -0.713662 -0.303811-4.896428 5.488269 1.698217 0.467129 -0.846963 -0.321633-3.970033 5.718152 1.649736 0.538281 -0.675271 -0.308937-4.241308 6.305154 1.561079 0.530374 -0.759568 -0.314885-4.622299 6.122031 1.285630 0.593514 -0.819801 -0.324980-3.858402 6.790126 1.355434 0.554501 -0.699528 -0.313367-3.225949 7.112061 1.836485 0.542861 -0.626959 -0.310550-3.618629 6.609677 1.425478 0.649458 -0.705726 -0.330651-4.825632 6.931686 1.054934 0.697500 -0.898118 -0.352882-4.643823 6.718731 1.597035 0.794892 -0.829805 -0.356148-4.195254 6.742494 1.369316 0.851647 -0.741445 -0.361343-4.673132 7.213348 0.982191 0.870828 -0.874021 -0.368065-4.705874 6.992210 0.364165 0.975592 -0.886354 -0.360444-3.583235 7.590363 1.429497 1.017425 -0.643034 -0.312516-3.291326 7.674142 1.033802 1.079436 -0.640898 -0.312070-3.215317 7.964147 0.688395 1.121606 -0.666137 -0.308291-3.314654 8.582181 -0.148690 1.121495 -0.757118 -0.310716-3.079519 8.892378 -0.298431 1.137509 -0.689219 -0.290569-3.037646 8.590839 0.393201 1.227592 -0.629812 -0.268847-3.011029 8.109267 0.294418 1.285827 -0.682046 -0.275323-3.215703 8.184737 -0.188184 1.252894 -0.714971 -0.270452-2.903212 8.337908 -0.645782 1.178354 -0.722281 -0.274695-2.815091 8.061855 -1.014424 1.142613 -0.755586 -0.276801-3.554211 7.397605 -1.067006 1.179024 -0.846838 -0.274383-2.869484 7.125051 -0.918895 1.147564 -0.755135 -0.256819-2.506325 6.863186 -0.592892 1.134332 -0.684498 -0.236546-2.819740 6.211098 -0.506718 1.160621 -0.760221 -0.228440-3.097770 5.919980 -0.749422 1.135454 -0.842021 -0.221306-3.727077 5.569884 -1.279293 1.099148 -0.968249 -0.215591-2.632088 5.807250 -1.597528 0.972457 -0.851028 -0.196598-2.385170 5.590349 -1.792747 0.900206 -0.834845 -0.182292-2.924883 4.892712 -1.932325 0.891909 -0.933100 -0.178567-2.825985 4.528660 -1.360474 0.865177 -0.911052 -0.159210-2.679716 4.223170 -1.143247 0.827548 -0.892532 -0.147197-1.637265 4.506395 -1.477945 0.714574 -0.808473 -0.139096-2.159474 4.392463 -1.937479 0.672265 -0.913826 -0.139436-2.744134 4.174676 -1.768688 0.642522 -1.008147 -0.126692-2.651330 3.984783 -1.533152 0.628260 -0.983872 -0.113248-2.505418 3.790723 -1.441582 0.604429 -0.959651 -0.101847-1.875992 3.900412 -1.423785 0.524804 -0.878342 -0.095661-1.427006 3.837132 -1.535299 0.464070 -0.828647 -0.098978-2.106613 3.684528 -1.617527 0.431745 -0.932008 -0.109497-2.328161 3.564499 -1.426221 0.403511 -0.952270 -0.109427-2.135612 3.364603 -1.246852 0.383148 -0.921308 -0.108229-2.305819 3.193047 -1.219171 0.376171 -0.946882 -0.111981-2.648041 2.946475 -1.320483 0.380990 -1.008119 -0.121373-2.078680 3.039637 -1.108846 0.326655 -0.937790 -0.123126-2.492485 2.904848 -1.104617 0.289239 -1.009199 -0.139353-3.089369 2.760900 -0.906391 0.242927 -1.107570 -0.159939-2.529780 2.514403 -0.960193 0.170448 -1.058407 -0.178452-2.123769 2.588461 -0.811201 0.062643 -1.008133 -0.186613-2.803177 2.300770 -0.671740 0.034523 -1.104708 -0.203060-2.041968 2.168550 -0.874058 -0.047544 -1.050634 -0.214493-2.725761 2.336844 -0.354878 -0.122607 -1.129787 -0.219501-2.649663 1.895550 -0.850146 -0.150691 -1.166471 -0.243343-2.501595 2.015862 -0.414804 -0.225640 -1.116338 -0.244378-2.526242 2.012124 -0.363024 -0.266797 -1.145379 -0.261593-2.653646 1.925140 -0.044555 -0.290929 -1.119373 -0.264028-2.132630 1.963047 -0.189339 -0.325547 -1.078107 -0.276514-2.643503 2.278937 0.067377 -0.345843 -1.126346 -0.277526-2.335645 2.229757 -0.059881 -0.351353 -1.059643 -0.278245-2.406050 2.144782 0.452022 -0.308090 -1.007585 -0.271071-2.917801 2.237555 0.602385 -0.290605 -1.062806 -0.275249-2.906021 2.180950 0.760966 -0.250302 -1.034454 -0.273827-3.093752 2.588267 0.627706 -0.264615 -1.066047 -0.283197-3.077087 2.445053 0.462850 -0.215973 -1.036534 -0.284299-2.926654 2.886096 0.663115 -0.229713 -1.001030 -0.279112-3.921629 2.904297 0.940233 -0.185434 -1.108510 -0.286869-3.061854 2.804118 0.952311 -0.145300 -0.972596 -0.280426-2.773235 2.898484 1.655638 -0.106776 -0.882710 -0.266359-2.867291 2.875911 1.563784 -0.081314 -0.910973 -0.276425-3.740761 2.885298 1.387955 -0.036324 -1.031296 -0.290223-3.137724 3.698520 1.034927 -0.119236 -0.962180 -0.291116-2.832059 3.982496 0.686701 -0.149064 -0.881082 -0.285559-2.978928 3.728786 1.531387 -0.073612 -0.833509 -0.274555-4.380269 3.322715 1.965801 0.020292 -1.004496 -0.290613-3.396416 3.416273 1.701478 0.023252 -0.858076 -0.291616-3.025991 4.550914 1.010954 -0.090733 -0.809434 -0.297739-3.424247 4.392400 0.701844 -0.047392 -0.848037 -0.311709-3.619824 4.207799 0.954699 0.020274 -0.861796 -0.319524-3.315834 4.136264 0.870417 0.060702 -0.766087 -0.317492-3.767405 4.168170 0.917027 0.171799 -0.821987 -0.341155-3.130459 4.617646 1.224713 0.163913 -0.714480 -0.329810-3.118923 4.652506 1.338695 0.213231 -0.685071 -0.326434-3.810486 4.539245 0.557863 0.313049 -0.815285 -0.354844-4.371094 4.997248 0.757086 0.366573 -0.898044 -0.364262-3.284339 5.436857 0.462363 0.384089 -0.776497 -0.359658-3.798684 5.622717 0.609625 0.476045 -0.785856 -0.348666-3.729609 5.387354 0.652377 0.598814 -0.830824 -0.360247-2.894876 5.822745 0.779922 0.632836 -0.736014 -0.349909-3.624203 6.659720 0.121060 0.615812 -0.865376 -0.364537-3.112421 6.837410 -0.113131 0.666296 -0.810920 -0.360384-2.568158 6.742486 0.847334 0.756548 -0.693423 -0.338075-3.087403 6.596024 0.812345 0.843946 -0.809710 -0.351019-3.339333 6.738445 0.560105 0.887609 -0.846954 -0.351596-3.077342 7.003630 0.103066 0.871920 -0.900933 -0.361185-2.526897 7.317860 -0.322911 0.831609 -0.822895 -0.339591-2.025955 7.192048 0.117631 0.840352 -0.718539 -0.310066-2.186206 6.657100 0.342417 0.893814 -0.801492 -0.310695-3.148446 6.445240 -0.043331 0.919317 -0.943738 -0.317230-2.198848 6.831252 -0.085494 0.859488 -0.830199 -0.295362-1.953355 6.998110 -0.426950 0.840523 -0.833587 -0.288775-2.259845 7.229443 -0.723074 0.831304 -0.880139 -0.271540-2.357906 6.926305 -0.409072 0.887568 -0.906446 -0.247875-2.735885 6.534606 -0.201135 0.958951 -0.949710 -0.222389-1.383681 6.906329 -0.161718 0.920013 -0.791793 -0.176154-1.299828 7.287844 -0.610823 0.884561 -0.842380 -0.164119-1.729107 7.588134 -1.315776 0.876447 -0.982495 -0.163153-1.407697 7.582647 -1.292513 0.888714 -0.927178 -0.151748-1.444947 7.238038 -0.944150 0.957878 -0.900237 -0.139283-1.846815 6.746587 -0.584644 1.051443 -0.932511 -0.133424-1.853252 6.558665 -0.246238 1.103103 -0.922071 -0.123257-1.406176 6.657457 -0.539517 1.094452 -0.893486 -0.117591-1.603917 6.728785 -0.892949 1.086708 -0.937315 -0.117481-1.708170 6.599656 -1.007148 1.096041 -0.960250 -0.114217-1.716049 6.468406 -0.917651 1.106657 -0.949968 -0.101934-1.580470 6.371347 -0.755002 1.116300 -0.907233 -0.081931-1.545461 6.433490 -0.801166 1.107838 -0.916718 -0.075256-1.608739 6.448585 -1.016458 1.096917 -0.951834 -0.075105-1.626246 6.441766 -1.022421 1.078263 -0.957825 -0.073182-1.588842 6.356579 -0.860138 1.062090 -0.953451 -0.071501-1.686408 6.275809 -0.902136 1.027895 -0.992707 -0.076416-1.840967 6.201291 -0.923950 1.000085 -1.032093 -0.078621-1.760121 6.083489 -0.955355 0.971046 -1.024339 -0.073235-1.652138 5.963258 -1.039131 0.943603 -1.015311 -0.070133-1.905973 5.752271 -1.039424 0.927044 -1.051255 -0.070485-1.869183 5.630211 -0.984357 0.905105 -1.044952 -0.067443-1.774808 5.479056 -0.943527 0.881820 -1.034237 -0.066154-1.849776 5.302301 -0.898377 0.872221 -1.051109 -0.072764-2.058519 5.058654 -0.689659 0.883457 -1.079711 -0.081966-2.198218 4.834861 -0.444586 0.898891 -1.079168 -0.088014-2.289646 4.704622 -0.338211 0.901332 -1.068312 -0.094650-2.441778 4.564438 -0.348406 0.902127 -1.073960 -0.104872-2.637072 4.443319 -0.387710 0.906619 -1.078641 -0.113080-2.743541 4.337317 -0.295764 0.920610 -1.056618 -0.119375-2.923302 4.250824 -0.261187 0.942501 -1.056108 -0.137332-2.975012 4.326493 -0.294580 0.944574 -1.047267 -0.151637-3.046015 4.389047 -0.437450 0.954749 -1.037768 -0.174519-3.275040 4.391227 -0.547636 0.975399 -1.055511 -0.201222-3.487931 4.419393 -0.514709 0.995620 -1.066633 -0.220497-3.621551 4.416420 -0.357936 1.029737 -1.064627 -0.233087-3.631901 4.431558 -0.293846 1.061392 -1.059382 -0.238300-3.665675 4.439369 -0.296256 1.109056 -1.068628 -0.244389-3.703316 4.413729 -0.273094 1.147361 -1.086640 -0.248310-3.686543 4.455564 -0.244204 1.182193 -1.097000 -0.249472-3.523841 4.483397 -0.236582 1.205314 -1.091144 -0.249687-3.557058 4.473760 -0.331157 1.229937 -1.118546 -0.255364-3.498850 4.409646 -0.229322 1.257751 -1.114711 -0.254844-3.494606 4.208056 -0.161935 1.303469 -1.122500 -0.258297-3.675128 4.057473 0.006911 1.348615 -1.146858 -0.261118-3.677915 3.967293 0.130723 1.393150 -1.155453 -0.266378-3.750331 4.009389 0.104510 1.419305 -1.167170 -0.272405-3.820348 4.059914 -0.014865 1.454746 -1.176692 -0.283768-3.875332 4.140265 0.104101 1.496270 -1.136706 -0.288249-4.020323 4.176726 0.119642 1.521761 -1.129552 -0.294211-4.046171 4.263779 0.159276 1.550046 -1.105399 -0.296696-3.951338 4.417236 0.190847 1.573097 -1.068577 -0.292585-3.927215 4.580755 0.182609 1.600538 -1.045673 -0.288406-3.993524 4.732262 0.236433 1.642064 -1.030087 -0.281605-4.106764 4.862192 0.298199 1.683142 -1.030217 -0.275671-4.149468 4.909947 0.372085 1.721593 -1.016424 -0.268201-4.185968 4.854442 0.190004 1.770822 -1.011259 -0.260642-4.173781 4.770576 0.142257 1.809554 -1.014995 -0.247203-4.210468 4.533716 0.143356 1.850453 -1.029360 -0.231723-4.066274 4.398506 0.112554 1.866145 -1.043856 -0.209296-3.795570 4.346867 -0.044550 1.847774 -1.086626 -0.190714-3.479542 4.233494 -0.032272 1.831962 -1.099820 -0.164083-3.122632 3.997497 -0.307964 1.809745 -1.119661 -0.147542-3.065520 3.902923 -0.288443 1.764769 -1.145355 -0.132006-3.177981 3.440367 -0.027304 1.755602 -1.187339 -0.117831-3.330462 3.006624 -0.104020 1.714819 -1.284893 -0.111569-3.387306 2.737438 -0.207886 1.620140 -1.360552 -0.104889-3.410814 2.441202 -0.605754 1.537162 -1.437880 -0.102991-3.321038 2.225808 -0.825343 1.422048 -1.487721 -0.097727-3.349648 1.821302 -0.798221 1.338841 -1.528251 -0.090727-3.397341 1.341694 -0.671479 1.288267 -1.557009 -0.085673-3.467782 0.944190 -0.457110 1.216675 -1.590446 -0.083443-3.402650 0.549862 -0.380244 1.150776 -1.604784 -0.086834-3.310838 0.499019 -0.570425 1.052821 -1.618313 -0.092638-3.448451 0.557084 -0.741180 0.977503 -1.653524 -0.102044-3.544021 0.723671 -0.694565 0.929649 -1.651612 -0.110604-3.352696 1.000340 -0.734431 0.879000 -1.570209 -0.117772-3.187878 1.023904 -0.557974 0.860752 -1.471977 -0.127404-3.303790 1.100519 -0.427824 0.831398 -1.408775 -0.158605-3.544500 1.321348 -0.497003 0.793149 -1.367760 -0.197709-3.434759 1.668184 -0.755207 0.751020 -1.308255 -0.249347-3.446056 1.968744 -0.795428 0.740152 -1.235298 -0.284063-3.636080 2.018671 -0.797588 0.794680 -1.179568 -0.310442-3.707874 2.254691 -0.374534 0.843937 -1.110931 -0.324856-4.049874 2.566547 0.066039 0.920685 -1.099147 -0.342115-4.260724 2.865646 0.230517 0.981215 -1.085207 -0.354942-4.331327 3.374811 0.152009 1.008766 -1.075448 -0.369100-4.053076 3.804270 0.134039 1.027958 -1.021922 -0.375839-3.893360 4.190394 0.085660 1.036666 -0.970490 -0.381858-3.938453 4.512187 0.060476 1.036112 -0.957008 -0.391709-4.007096 4.651845 0.194149 1.049909 -0.921122 -0.396472-4.285292 4.590828 0.209382 1.075918 -0.933294 -0.402515-4.501822 4.543495 0.204543 1.098784 -0.951191 -0.396915-4.518916 4.536174 0.216940 1.120705 -0.968421 -0.370591-4.375244 4.551113 0.181131 1.135619 -0.992497 -0.344723-4.071848 4.740845 0.242401 1.117477 -0.978908 -0.327977-3.928789 4.775971 0.269233 1.104169 -0.984367 -0.318067-3.421959 4.748177 0.262624 1.094788 -0.955027 -0.305032-3.129209 4.670571 0.224975 1.089877 -0.942344 -0.295332-3.035990 4.571797 0.119286 1.080120 -0.954704 -0.293804-3.030094 4.526379 -0.003055 1.082403 -0.996559 -0.302526-3.073122 4.469309 -0.006971 1.106153 -1.035348 -0.311352-3.070191 4.530555 0.002611 1.145047 -1.063109 -0.313291-3.001634 4.545175 0.130573 1.201035 -1.069586 -0.308779-2.941345 4.625329 0.354418 1.260781 -1.079083 -0.299810-2.941817 4.590756 0.311326 1.301601 -1.097039 -0.296477-2.825654 4.590496 0.272457 1.317635 -1.108061 -0.293789-2.712589 4.613955 -0.011656 1.309665 -1.123299 -0.296730-2.553221 4.674681 -0.330682 1.288524 -1.111752 -0.298380-2.452363 4.549178 -0.426575 1.300700 -1.102821 -0.302570-2.535314 4.265321 -0.419558 1.343937 -1.106079 -0.308436-2.691338 4.019157 -0.206277 1.395889 -1.111865 -0.312253-2.957781 3.759316 -0.082613 1.447797 -1.141556 -0.319120-3.242161 3.541572 -0.089893 1.488521 -1.177315 -0.327638-3.301643 3.489339 -0.197483 1.501488 -1.186118 -0.335209-3.132334 3.617177 -0.321819 1.484631 -1.157836 -0.338333-3.013229 3.747419 -0.342440 1.472633 -1.118621 -0.339201-2.874977 3.800284 -0.188726 1.472828 -1.078668 -0.338389-2.804243 3.787110 -0.120888 1.480107 -1.050383 -0.337813-2.823951 3.908658 -0.099052 1.471044 -1.031537 -0.333487-2.945868 3.905590 -0.120209 1.470928 -1.042159 -0.333503-3.090544 3.862673 -0.436386 1.464677 -1.059998 -0.335965-3.096616 3.830402 -0.600027 1.456393 -1.056686 -0.334084-3.118872 3.796078 -0.535195 1.443090 -1.057292 -0.331073-3.051104 3.684374 -0.486298 1.436084 -1.052301 -0.328838-2.928942 3.562971 -0.541974 1.423264 -1.048267 -0.329306-2.798681 3.419339 -0.461468 1.409825 -1.027886 -0.328216-2.868535 3.280401 -0.448485 1.395998 -1.030916 -0.332180-2.880190 3.173067 -0.420158 1.386438 -1.012520 -0.335250-2.823158 3.190298 -0.397708 1.370504 -0.988090 -0.337358-2.930111 3.131376 -0.272898 1.370863 -0.972607 -0.337318-3.111075 3.019850 -0.216038 1.378040 -0.988030 -0.341034-3.377241 2.957695 -0.110766 1.382306 -1.015693 -0.341529-3.363046 2.921568 -0.048040 1.383740 -1.010821 -0.324321-3.165382 2.907034 -0.017266 1.375143 -1.001945 -0.304805-2.973855 3.039356 -0.077207 1.347845 -0.993898 -0.288065-2.740876 3.128634 -0.146912 1.319437 -0.989755 -0.279047-2.648126 3.108162 -0.245472 1.303896 -1.003447 -0.273604-2.524653 3.105483 -0.187861 1.290493 -0.995300 -0.266478-2.492689 3.055506 -0.221237 1.287102 -1.004779 -0.263583-2.544013 3.069119 -0.256687 1.281103 -1.024641 -0.262520-2.374413 3.113087 -0.249358 1.272072 -1.015597 -0.260850-2.401897 3.112725 -0.274137 1.270538 -1.027128 -0.261809-2.418942 3.051822 -0.312034 1.270389 -1.038522 -0.261715-2.269817 3.023432 -0.290321 1.262216 -1.031383 -0.260301-2.217602 2.986000 -0.329809 1.247952 -1.036800 -0.258490-2.036109 3.033472 -0.264499 1.222849 -1.021398 -0.253843-2.165424 2.855996 -0.203015 1.230190 -1.054601 -0.253712-2.171846 2.806147 -0.182971 1.221966 -1.072549 -0.251124-2.148022 2.840335 -0.129493 1.211731 -1.090166 -0.250766-2.229350 2.852237 -0.161509 1.208787 -1.121137 -0.251835-2.288754 2.916955 -0.183940 1.198567 -1.145962 -0.251312-2.183048 2.905863 -0.004247 1.194058 -1.139329 -0.245572-2.182694 2.892023 -0.026550 1.179306 -1.161116 -0.247730-2.134775 3.024991 -0.158392 1.128975 -1.183503 -0.252098-1.886927 3.139025 -0.181515 1.082573 -1.167176 -0.254882-1.801560 3.210877 -0.251290 1.039885 -1.178078 -0.263939-1.823132 3.165578 -0.157781 1.020265 -1.187981 -0.271089-1.784182 3.104539 -0.026105 1.006340 -1.188002 -0.277730-1.940788 3.011949 0.029644 0.997298 -1.213492 -0.286627-1.863577 3.083272 -0.019313 0.964253 -1.207421 -0.292120-1.783947 3.103119 -0.100938 0.932490 -1.189808 -0.295625-1.898592 3.057644 -0.229131 0.899706 -1.193161 -0.300781-1.887384 2.995685 -0.280472 0.867791 -1.176190 -0.301129-1.948969 2.951318 -0.207391 0.845077 -1.171527 -0.296819-1.863217 2.973889 -0.220930 0.821489 -1.171375 -0.292323-1.775254 3.033522 -0.186283 0.809833 -1.164649 -0.290380-1.877563 3.055650 -0.171646 0.811770 -1.194138 -0.294533-1.832600 3.064989 -0.220709 0.811478 -1.208868 -0.300184-1.845304 3.131711 -0.184577 0.797712 -1.233865 -0.307220-1.841199 3.195328 -0.184260 0.770224 -1.255556 -0.314802-1.644728 3.227378 -0.189061 0.736557 -1.249188 -0.318487-1.656190 3.261470 -0.209226 0.700953 -1.272863 -0.322311-1.778424 3.296929 -0.252872 0.665122 -1.310598 -0.325441-1.847377 3.228886 -0.250870 0.643923 -1.336391 -0.326842-1.887198 3.121433 -0.161981 0.638973 -1.346782 -0.323797-2.062879 3.126834 -0.038554 0.627419 -1.385165 -0.321498-2.081839 3.172997 -0.066650 0.620558 -1.407218 -0.321395-1.867623 3.330125 -0.149080 0.604719 -1.399562 -0.319583-1.634628 3.526048 -0.121930 0.588277 -1.376312 -0.315352-1.566809 3.664108 -0.083625 0.588731 -1.369808 -0.314788-1.641741 3.753885 0.042325 0.602754 -1.367656 -0.313122-1.780676 3.822123 0.123778 0.626456 -1.375681 -0.314747-1.908163 3.877434 0.142127 0.662539 -1.375821 -0.316791-2.029268 4.029737 0.132150 0.695603 -1.381221 -0.319376-2.232240 4.177419 0.065171 0.724623 -1.412640 -0.325241-2.430661 4.213459 0.063345 0.761661 -1.428439 -0.327356-2.546680 4.285953 -0.087323 0.797644 -1.448128 -0.330528-2.545768 4.380043 -0.146399 0.804486 -1.452268 -0.329816-2.420626 4.482853 -0.178593 0.813945 -1.439576 -0.327276-2.257181 4.593239 -0.179572 0.819596 -1.415055 -0.322687-2.229290 4.663738 -0.190775 0.831737 -1.419210 -0.323547-2.240892 4.659499 -0.236991 0.853420 -1.434110 -0.326368-2.233085 4.680679 -0.260419 0.866207 -1.438594 -0.327612-2.270497 4.654694 -0.263300 0.885398 -1.448075 -0.329531-2.356842 4.572527 -0.323695 0.908396 -1.466064 -0.332936-2.461504 4.504309 -0.321188 0.934306 -1.482014 -0.332985-2.531219 4.452331 -0.364276 0.961321 -1.496287 -0.331126-2.522477 4.413551 -0.408601 0.989467 -1.500392 -0.320264-2.441970 4.404692 -0.438933 1.009031 -1.496563 -0.305924-2.386354 4.414283 -0.504850 1.028081 -1.504173 -0.293727-2.444329 4.394550 -0.516771 1.049645 -1.524743 -0.287871-2.445733 4.399422 -0.536507 1.070969 -1.536652 -0.286786-2.498860 4.362098 -0.529558 1.100967 -1.561254 -0.291242-2.588547 4.311204 -0.455046 1.133561 -1.586248 -0.296989-2.662215 4.269228 -0.415063 1.162619 -1.604607 -0.304047-2.776083 4.329660 -0.376524 1.176547 -1.630022 -0.311889-2.842228 4.309507 -0.386424 1.194127 -1.645680 -0.318841-2.885686 4.227963 -0.458749 1.214178 -1.652393 -0.323980-2.958230 4.121910 -0.468076 1.235349 -1.655509 -0.327456-2.924239 3.941498 -0.438540 1.265826 -1.640730 -0.329500-2.977929 3.912583 -0.468837 1.273187 -1.652819 -0.330570-3.034408 3.867791 -0.502295 1.285986 -1.663482 -0.329861-3.022335 3.813030 -0.529629 1.302303 -1.662448 -0.323513-3.016466 3.709887 -0.553936 1.323593 -1.660464 -0.316948-3.115185 3.603929 -0.521263 1.344316 -1.671831 -0.309055-3.265799 3.492084 -0.571855 1.362274 -1.689357 -0.303381-3.218097 3.412581 -0.578641 1.375637 -1.686388 -0.298002-3.078551 3.408434 -0.575371 1.383785 -1.679651 -0.294916-3.011471 3.459431 -0.571106 1.386268 -1.677063 -0.294119-3.030767 3.463024 -0.566164 1.393365 -1.684560 -0.295846-3.028807 3.440489 -0.563319 1.399330 -1.684636 -0.297664-2.913936 3.479932 -0.508201 1.387113 -1.666792 -0.300200-2.858758 3.426016 -0.539821 1.378706 -1.664391 -0.305858-2.890514 3.358273 -0.547054 1.362074 -1.665486 -0.308155-2.882920 3.237352 -0.585058 1.340182 -1.656752 -0.304140-3.022853 3.042543 -0.514374 1.328030 -1.669795 -0.296869-3.015493 2.745696 -0.556165 1.304954 -1.660781 -0.283023-2.927123 2.514922 -0.774395 1.272045 -1.637250 -0.270164-2.837065 2.319244 -0.808858 1.220765 -1.614753 -0.254868-3.004494 2.129493 -0.745805 1.189183 -1.627444 -0.243254-2.867649 1.938277 -0.650407 1.142666 -1.600575 -0.226398-2.698931 1.737711 -0.631641 1.097554 -1.562467 -0.210806-2.373724 1.484421 -0.789287 1.006335 -1.509714 -0.181905-2.478244 1.366992 -0.812712 0.971369 -1.524023 -0.172136-2.249946 1.291340 -1.051508 0.889017 -1.488900 -0.151025-2.006732 1.290694 -1.205653 0.797873 -1.460113 -0.126215-2.254344 1.158389 -1.140654 0.736642 -1.494174 -0.103206-2.180418 0.637006 -1.300508 0.708985 -1.487718 -0.080008-1.763462 0.464755 -1.311694 0.636802 -1.430895 -0.053341-1.419223 0.292095 -1.165813 0.575693 -1.378951 -0.031736-1.465780 -0.030082 -1.091427 0.542238 -1.392541 -0.022941-1.666794 -0.308279 -1.170105 0.491429 -1.430464 -0.017834-0.558787 -0.426435 -1.062601 0.407916 -1.294303 0.003662-0.976171 -0.830103 -1.241862 0.352719 -1.345295 0.014312-1.263447 -1.344877 -1.231712 0.295119 -1.410929 0.026933-1.387603 -1.635566 -1.022745 0.263419 -1.430560 0.047705-0.814776 -1.812553 -1.129185 0.198929 -1.337794 0.078069-0.663236 -1.975115 -1.045996 0.144335 -1.354820 0.088558-1.503754 -2.258059 -0.918763 0.136430 -1.491181 0.083761-1.671254 -2.414207 -0.801435 0.108613 -1.531053 0.088221-0.532951 -2.121362 -0.734360 0.016970 -1.371318 0.109490-0.452251 -2.080002 -0.935194 -0.029546 -1.366840 0.111778-0.423941 -2.040785 -0.928565 -0.062897 -1.372482 0.111108-0.691134 -2.181942 -0.853671 -0.077076 -1.384440 0.109039-0.251210 -2.317990 -0.605074 -0.085855 -1.300414 0.115992-0.578924 -2.446954 -0.427303 -0.082076 -1.313277 0.116079-1.083783 -2.730289 -0.369583 -0.056032 -1.387374 0.106576-1.029206 -2.538052 -0.468718 -0.077431 -1.380678 0.105649-0.725442 -2.357567 -0.555098 -0.097189 -1.324695 0.113618-0.391639 -2.274699 -0.687474 -0.092214 -1.259877 0.123278-0.740097 -2.235999 -0.727091 -0.068479 -1.288239 0.1245970.173835 -1.892912 -0.596396 -0.080969 -1.153369 0.1389710.612434 -1.541895 -0.697908 -0.091540 -1.089987 0.141435-0.023953 -1.542495 -0.974112 -0.058669 -1.173182 0.1194810.689769 -1.086241 -0.892538 -0.089670 -1.066287 0.1100340.524013 -1.025652 -1.172846 -0.075799 -1.088167 0.089200-0.022965 -0.813320 -1.588322 -0.073127 -1.159087 0.072427-0.868536 -0.895351 -1.435153 -0.031238 -1.251840 0.0630390.031614 -0.654045 -1.391667 -0.048422 -1.127974 0.0712330.026489 -0.567334 -1.560870 -0.055026 -1.112214 0.075243-0.469096 -0.524049 -1.389783 -0.037117 -1.176769 0.074279-0.836592 -0.473807 -1.417025 -0.029449 -1.217051 0.072977-0.286636 0.040089 -1.885364 -0.095128 -1.136477 0.082150-0.571233 0.218746 -1.940256 -0.102598 -1.166146 0.083646-1.008145 -0.179968 -2.162520 -0.041941 -1.248826 0.071385-0.492908 -0.085641 -1.782107 -0.047500 -1.121668 0.094585-0.270062 -0.140276 -1.830071 -0.037213 -1.062464 0.105306-1.398779 -0.183295 -1.843349 -0.012423 -1.206192 0.095959-1.797005 -0.205029 -2.119261 -0.004198 -1.277779 0.074968-0.971868 0.092865 -2.360858 -0.053837 -1.144929 0.078344-0.527077 0.410819 -2.646631 -0.103717 -1.058510 0.076507-1.311316 0.375470 -2.220047 -0.083422 -1.153199 0.060016-1.585223 0.096110 -2.045374 -0.049551 -1.165105 0.052979-1.343516 0.125170 -1.987841 -0.061275 -1.076137 0.059837-0.133351 0.294119 -1.965697 -0.103440 -0.892628 0.069154-0.958267 0.494745 -2.188877 -0.122296 -1.023284 0.044548-1.699450 0.647392 -2.597500 -0.135761 -1.149317 0.017292-1.307955 0.743895 -2.791260 -0.157382 -1.068634 0.011038-0.878330 0.657574 -2.568788 -0.154081 -0.961096 0.009721-0.790107 0.601448 -2.235779 -0.152792 -0.931980 -0.004957-1.644888 0.532314 -2.452208 -0.138941 -1.053465 -0.037158-1.769961 0.752654 -2.703451 -0.165474 -1.079353 -0.057993-1.150755 0.961354 -2.697084 -0.193515 -0.976047 -0.055987-1.496472 0.742095 -2.633615 -0.149905 -1.003187 -0.062879-1.408246 0.482306 -2.329783 -0.097456 -0.977797 -0.065573-1.949854 0.344980 -2.544765 -0.062801 -1.067790 -0.083693-1.917999 0.554332 -2.774425 -0.069585 -1.071681 -0.092848-1.553420 0.820291 -2.991365 -0.087965 -1.036473 -0.099959-1.638984 0.790788 -3.104572 -0.068378 -1.045549 -0.106140-2.141181 0.554811 -2.947897 -0.006417 -1.090793 -0.111976-1.559355 0.462846 -2.566455 0.017441 -0.980202 -0.102163-1.493198 0.358402 -2.461540 0.050741 -0.986813 -0.111804-1.796988 0.425587 -2.953871 0.042627 -1.041211 -0.129079-1.800446 1.023451 -3.593813 -0.025317 -1.088615 -0.149815-1.376129 1.174074 -3.600940 -0.045820 -1.005208 -0.145962-1.584116 0.910071 -3.119212 -0.000822 -0.969385 -0.134738-1.859422 0.285195 -2.735762 0.090015 -0.991045 -0.133737-1.521326 0.280522 -2.510978 0.092692 -0.973372 -0.135060-1.808338 0.686340 -3.213563 0.045199 -1.027635 -0.144365-1.663024 1.208237 -3.687257 -0.018419 -0.987650 -0.139092-1.295717 1.022592 -3.210261 0.016705 -0.938277 -0.133641-1.867893 0.376839 -2.978008 0.113475 -0.988351 -0.138564-2.184145 0.362571 -3.282633 0.128078 -1.062678 -0.153721-2.192118 0.446364 -3.180276 0.130794 -1.018995 -0.147481-1.710487 0.390516 -2.744918 0.153880 -0.954864 -0.142862-2.370446 0.088324 -3.068734 0.200281 -1.065475 -0.164791-2.609890 0.248356 -3.707232 0.187567 -1.112620 -0.178370-1.973095 0.348333 -3.201153 0.173494 -0.969952 -0.157534-1.649557 0.235910 -3.204026 0.191066 -0.926399 -0.157318-2.446479 0.186598 -3.825753 0.196513 -1.090410 -0.186719-2.305073 0.383169 -3.604387 0.178848 -1.008748 -0.171919-1.732222 0.361754 -3.385010 0.180234 -0.923048 -0.166707-1.983946 0.275059 -3.828397 0.188797 -0.985201 -0.187090-2.226928 0.312359 -3.764642 0.199584 -0.986404 -0.189570-2.124960 0.132960 -3.323631 0.231892 -0.967894 -0.195148-2.219133 0.122942 -3.782324 0.236464 -1.007431 -0.212995-2.197572 0.450535 -4.240864 0.203222 -1.012723 -0.220363-1.976200 0.434288 -3.814966 0.222313 -0.992904 -0.216588-2.090234 0.206160 -3.802167 0.261453 -1.015205 -0.219942-2.265656 0.112253 -4.034701 0.274729 -1.034171 -0.220374-2.340407 -0.055625 -3.535206 0.303504 -1.040832 -0.215745-2.466013 -0.287604 -3.717066 0.319411 -1.107624 -0.229186-2.803932 -0.195290 -4.298784 0.290354 -1.168021 -0.234431-2.663112 -0.248468 -3.812801 0.294864 -1.136480 -0.221014-3.019950 -0.771348 -3.641183 0.341981 -1.178152 -0.223390-3.380812 -0.620918 -4.168484 0.312922 -1.251084 -0.232891-2.833120 -0.514067 -3.771656 0.293601 -1.140650 -0.217219-2.862586 -0.598388 -3.911822 0.299171 -1.169676 -0.228395-3.299327 -0.586876 -4.285575 0.300789 -1.233122 -0.244411-2.849662 -0.551146 -3.650005 0.295916 -1.098422 -0.230841-2.946650 -0.739869 -3.550268 0.321560 -1.123496 -0.245592-3.362826 -0.820716 -3.987074 0.343032 -1.193816 -0.267775-3.193052 -0.783458 -3.592243 0.358067 -1.099467 -0.255659-3.026232 -0.866587 -3.556762 0.379702 -1.108869 -0.271162-3.583215 -1.063143 -3.864764 0.417079 -1.207630 -0.299120-3.528058 -0.802296 -3.869361 0.392407 -1.162710 -0.297490-3.203681 -0.929274 -3.589957 0.410940 -1.131376 -0.301764-3.584009 -1.329617 -3.622665 0.466872 -1.189502 -0.318947-3.917540 -1.133585 -4.147596 0.446195 -1.264096 -0.336444-3.879645 -1.038878 -3.817053 0.437613 -1.237577 -0.327994-3.647818 -1.282633 -3.839469 0.463667 -1.224752 -0.331898-4.069245 -1.333592 -4.267892 0.470004 -1.321892 -0.350005-4.240730 -1.262885 -4.380820 0.459774 -1.340379 -0.348559-3.943312 -1.388095 -3.683326 0.479079 -1.260954 -0.332014-3.959874 -1.720392 -3.950094 0.506851 -1.308186 -0.350085-4.281895 -1.577589 -4.410947 0.482845 -1.372460 -0.362199-4.142560 -1.364302 -4.265875 0.447904 -1.321728 -0.353436-3.727771 -1.499531 -3.816790 0.456863 -1.238808 -0.345047-3.994913 -1.917834 -3.852056 0.503305 -1.275057 -0.350400-4.384868 -1.931394 -4.164494 0.498411 -1.359101 -0.361403-4.270909 -1.676558 -4.095915 0.464185 -1.322523 -0.349928-3.862008 -1.558209 -3.834499 0.443703 -1.240447 -0.332805-3.660043 -1.944399 -3.813493 0.483492 -1.216360 -0.329311-3.986139 -2.060539 -3.738694 0.500348 -1.266462 -0.330879-4.281995 -1.821698 -4.031323 0.472089 -1.338984 -0.340894-4.015834 -1.517988 -4.088409 0.431440 -1.275496 -0.325745-3.655450 -1.803662 -3.846269 0.463319 -1.207338 -0.311247-3.790657 -2.143035 -3.840107 0.510213 -1.233986 -0.307232-4.116115 -2.132882 -3.861351 0.523424 -1.288253 -0.299669-4.032262 -1.832112 -4.416129 0.488987 -1.334785 -0.298454-3.776858 -1.689906 -4.372056 0.482999 -1.270054 -0.265310-3.593906 -2.183845 -4.026005 0.561581 -1.259577 -0.245709-4.082163 -2.383642 -4.093881 0.606905 -1.345295 -0.240791-4.026409 -2.142195 -4.371312 0.585029 -1.357761 -0.232550-3.652695 -1.905949 -4.682075 0.556891 -1.325189 -0.224429-3.385493 -2.088538 -4.359710 0.583960 -1.237147 -0.201343-3.417648 -2.392947 -4.169665 0.622580 -1.269922 -0.204205-3.881039 -2.570654 -4.114520 0.651557 -1.317213 -0.202659-3.805838 -2.204269 -4.410541 0.597300 -1.328312 -0.204716-3.441422 -1.942087 -4.504606 0.554423 -1.268557 -0.192569-3.263366 -2.034674 -4.214521 0.567831 -1.206462 -0.171286-3.462686 -2.371906 -4.003830 0.612797 -1.252438 -0.165183-3.615265 -2.414076 -3.996952 0.627660 -1.270582 -0.152499-3.127860 -2.044356 -4.360420 0.581627 -1.231580 -0.137160-2.930102 -1.716989 -4.582299 0.545208 -1.229245 -0.131097-3.048184 -1.715205 -4.540527 0.554101 -1.228294 -0.129122-3.143989 -2.043147 -4.025645 0.605938 -1.217373 -0.127738-3.246517 -2.305494 -3.844260 0.645957 -1.228033 -0.131020-3.307433 -2.295386 -4.054308 0.646449 -1.257627 -0.137717-3.286439 -2.134227 -4.185019 0.627148 -1.278192 -0.138524-3.311458 -1.996578 -4.591666 0.605387 -1.321103 -0.143776-3.438853 -1.916277 -4.850749 0.592819 -1.337173 -0.137558-3.326667 -2.109510 -4.599854 0.615947 -1.306971 -0.124192-3.358958 -2.506654 -4.121990 0.665009 -1.280222 -0.105565-3.374681 -2.752313 -3.747121 0.692004 -1.262981 -0.088339-3.428251 -2.585275 -3.940463 0.645941 -1.311736 -0.092005-3.377766 -2.162365 -4.349318 0.567590 -1.327286 -0.092552-3.038228 -1.720424 -4.589716 0.483994 -1.288242 -0.083959-2.966390 -1.860404 -4.279678 0.472525 -1.242036 -0.067151-2.982035 -2.172815 -3.924944 0.490718 -1.208624 -0.053455-3.123893 -2.275136 -3.664354 0.486486 -1.203349 -0.045230-3.032928 -2.058891 -3.599538 0.431935 -1.182438 -0.040799-3.152610 -1.838748 -3.797148 0.392685 -1.200050 -0.041031-3.145523 -1.876713 -3.889076 0.375467 -1.192203 -0.039143-3.209614 -1.913394 -3.786818 0.366603 -1.190004 -0.039213-3.374151 -1.931804 -3.725181 0.367592 -1.197853 -0.039099-3.027935 -1.807030 -3.289570 0.346963 -1.128415 -0.032345-2.835912 -1.910314 -3.019746 0.344059 -1.082211 -0.040092-2.825554 -1.912120 -3.126946 0.337825 -1.087318 -0.063079-2.701348 -1.668605 -2.885950 0.293614 -1.066900 -0.078378-2.720499 -1.507781 -2.962059 0.267389 -1.062753 -0.089384-2.478799 -1.187729 -3.258181 0.200923 -1.015658 -0.093246-2.356298 -1.153588 -3.085200 0.182519 -0.984257 -0.091358-2.557462 -1.262134 -2.912305 0.181506 -0.972640 -0.091360-2.214012 -1.226428 -2.411883 0.158795 -0.905030 -0.087577-2.280237 -1.383892 -2.282124 0.148501 -0.896684 -0.095537-2.380167 -1.149016 -2.549682 0.077624 -0.919693 -0.106325-2.141177 -0.632158 -2.668120 -0.016818 -0.933489 -0.107545-2.085263 -0.766457 -2.479856 -0.031112 -0.940174 -0.102974-2.222237 -0.868807 -2.631839 -0.033414 -0.983469 -0.098230-2.130708 -1.021524 -2.136717 -0.045163 -0.987575 -0.083633-2.262042 -1.265933 -1.714619 -0.033770 -1.028368 -0.064829-2.353930 -1.384771 -1.881606 -0.032639 -1.072231 -0.043146-2.404409 -1.495603 -1.922120 -0.033479 -1.110871 -0.012215-2.620408 -1.493087 -1.918056 -0.042000 -1.155735 0.016915-2.573736 -1.426359 -1.528580 -0.059731 -1.164002 0.048067-2.359001 -1.559577 -1.483018 -0.054772 -1.133830 0.072767-2.010692 -1.513888 -1.431164 -0.086572 -1.081178 0.081281-2.242766 -1.295355 -1.347513 -0.137923 -1.110792 0.071178-2.101866 -1.352170 -0.823701 -0.152469 -1.056454 0.078321-2.321353 -1.585883 -0.913623 -0.151752 -1.082448 0.069963-2.348677 -1.536161 -1.290002 -0.180105 -1.098518 0.058595-2.431539 -1.268841 -1.448913 -0.210123 -1.124058 0.048288-2.347444 -1.177354 -1.261006 -0.231195 -1.098050 0.043074-2.110735 -1.365447 -0.893923 -0.187108 -1.057981 0.036092-2.111810 -1.832421 -0.276783 -0.121114 -1.018134 0.032957-2.409223 -1.847340 -0.384304 -0.113560 -1.079004 0.003680-2.382927 -1.741066 -0.491791 -0.119846 -1.121584 -0.025461-2.644243 -1.235351 -1.400053 -0.192644 -1.212900 -0.067141-2.414147 -0.921214 -1.361351 -0.228794 -1.168614 -0.071201-2.568298 -1.271372 -1.083147 -0.190382 -1.167105 -0.075234-2.870640 -1.872313 -0.268992 -0.107007 -1.158755 -0.063645-3.168832 -2.408266 0.032196 -0.037581 -1.204971 -0.065434-3.383949 -2.088753 -0.760105 -0.093390 -1.282698 -0.081362-3.064005 -1.413555 -1.249409 -0.197099 -1.274094 -0.081818-3.234793 -1.547917 -1.068088 -0.197702 -1.253358 -0.067292-3.146383 -1.950175 -0.493160 -0.149712 -1.229799 -0.060528-3.125161 -2.425156 -0.234260 -0.091055 -1.237104 -0.065213-3.258000 -2.511590 -0.268590 -0.078311 -1.283199 -0.077698-3.207582 -1.861972 -0.595532 -0.161009 -1.276703 -0.081349-2.672427 -1.361755 -1.007261 -0.230182 -1.261768 -0.097737-2.685163 -1.586463 -1.019155 -0.199770 -1.254682 -0.103744-2.876319 -2.036046 -0.224718 -0.127448 -1.223024 -0.094346-3.122180 -2.493730 -0.219591 -0.059790 -1.282500 -0.111881-3.228447 -2.470683 -0.194440 -0.053198 -1.287492 -0.116150-2.973763 -1.997568 -0.354833 -0.099358 -1.264653 -0.122497-2.941528 -1.678154 -0.816416 -0.132968 -1.305171 -0.133337-3.035422 -1.822679 -0.646574 -0.093825 -1.281607 -0.121474-3.206809 -2.133714 -0.363782 -0.045741 -1.318672 -0.122798-3.522373 -2.217931 -0.525014 -0.025056 -1.387488 -0.131864-3.363036 -1.991704 -0.579277 -0.050398 -1.337760 -0.120332-3.066320 -1.720751 -0.696998 -0.080157 -1.335560 -0.126558-3.158326 -1.902008 -0.494399 -0.047683 -1.325597 -0.122919-3.353915 -2.210636 -0.634876 -0.002705 -1.386262 -0.138919-3.548693 -2.186568 -0.749663 -0.001163 -1.428936 -0.147212-3.564455 -1.991632 -0.796312 -0.019330 -1.420741 -0.145972-3.323808 -1.889465 -0.726529 -0.030382 -1.387336 -0.144296-3.257936 -2.134107 -0.358078 0.004921 -1.344730 -0.137600-3.469051 -2.420031 -0.736149 0.029928 -1.418828 -0.163395-3.544652 -2.208516 -0.714216 -0.003275 -1.412481 -0.168276-3.281003 -2.068829 -0.634992 -0.031532 -1.361280 -0.169123-3.162250 -2.189806 -0.267670 -0.025235 -1.322781 -0.166530-3.191950 -2.379247 -0.188241 -0.004852 -1.333061 -0.166759-3.621335 -2.231536 -0.878006 -0.046813 -1.440993 -0.181657-3.395570 -1.792497 -0.940135 -0.113590 -1.389952 -0.169123-2.993377 -1.889230 -0.459237 -0.120510 -1.259367 -0.143504-2.992201 -2.085438 0.086760 -0.107614 -1.233053 -0.135392-3.591862 -2.360565 -0.383634 -0.088840 -1.366417 -0.165342-3.863573 -1.832206 -0.712944 -0.156508 -1.421493 -0.178487-3.296762 -1.642980 -0.575795 -0.189030 -1.310827 -0.169882-3.121813 -1.813267 -0.254199 -0.169432 -1.303492 -0.178008-3.560481 -2.067438 -0.454092 -0.136150 -1.372577 -0.192618-3.780924 -1.796378 -0.418254 -0.167066 -1.400928 -0.196692-3.203752 -1.861008 0.149248 -0.148588 -1.258278 -0.172669-3.189877 -2.044540 -0.214631 -0.131828 -1.332169 -0.195882-3.564588 -1.980467 -0.541243 -0.134666 -1.384210 -0.203623-3.500855 -1.748503 -0.197394 -0.160182 -1.333964 -0.191236-3.340508 -1.810069 -0.312646 -0.164587 -1.363289 -0.202124-3.340643 -1.938167 -0.686508 -0.158883 -1.338394 -0.195794-3.257628 -1.920858 -0.191835 -0.163981 -1.273215 -0.171877-3.159090 -2.089256 0.316089 -0.142890 -1.278130 -0.169561-3.378658 -2.002499 -0.293766 -0.169322 -1.335593 -0.178422-3.134279 -1.789569 0.136120 -0.194466 -1.237755 -0.152651-3.069225 -1.803125 -0.421413 -0.209779 -1.332427 -0.176500-3.216484 -1.746889 -0.247257 -0.214644 -1.282686 -0.159178-3.007964 -1.856517 0.305882 -0.197517 -1.264014 -0.152097-3.434908 -1.923042 -0.270946 -0.198406 -1.363469 -0.164663-3.297981 -1.696143 0.059200 -0.219228 -1.277615 -0.133691-3.088729 -1.713827 -0.313815 -0.229427 -1.370002 -0.151809-3.544406 -1.792709 -0.465906 -0.206858 -1.356582 -0.124594-3.145493 -1.762612 -0.001667 -0.211449 -1.313314 -0.109070-3.351853 -1.885425 -0.242130 -0.205209 -1.394757 -0.120209-3.108131 -1.835592 0.271794 -0.208129 -1.268865 -0.092210-3.086989 -1.977369 -0.431323 -0.218187 -1.361669 -0.116659-3.022069 -1.982337 0.699558 -0.202491 -1.246459 -0.082716-2.885350 -2.096533 0.496756 -0.208277 -1.314002 -0.102606-3.044891 -2.092083 1.163608 -0.205784 -1.259375 -0.081582-2.755677 -2.204089 1.031604 -0.207419 -1.280589 -0.101270-3.087112 -2.055204 2.557818 -0.216098 -1.267103 -0.108495-3.693690 -2.295171 4.868980 -0.178814 -1.232982 -0.119527-4.070934 -2.236297 6.913134 -0.188237 -1.226546 -0.124577-4.508455 -2.610593 8.841673 -0.156064 -1.241197 -0.139760-5.256039 -2.582984 11.188641 -0.159153 -1.282421 -0.141839-5.103456 -2.845687 13.709164 -0.103183 -1.191796 -0.118432-4.922693 -3.332377 15.133178 -0.036132 -1.205952 -0.107896-4.751012 -3.439485 15.117480 -0.022417 -1.193123 -0.081369-4.107160 -3.708213 13.986092 -0.005649 -1.188858 -0.065143-4.415463 -3.871718 11.919577 0.028413 -1.261775 -0.052152-4.273615 -3.766707 9.997867 0.073117 -1.193446 -0.001045-3.765477 -3.771454 8.641952 0.143552 -1.133879 0.043569-3.830812 -3.621154 6.580001 0.237056 -1.151055 0.091074-3.328438 -3.276738 5.777437 0.256952 -1.093975 0.118578-2.650815 -3.474838 4.892097 0.334880 -1.019117 0.115875-3.061092 -3.386147 3.431615 0.374459 -1.070220 0.102515-2.513473 -3.106958 3.805554 0.383693 -0.972721 0.119938-2.433304 -3.549481 3.629585 0.488571 -1.021847 0.106321-3.219730 -3.226875 2.403154 0.493833 -1.115261 0.104549-2.835540 -3.338079 2.915257 0.519481 -1.040717 0.124026-2.843443 -3.663608 3.589103 0.581003 -1.107971 0.126894-3.496630 -3.633149 3.045766 0.558904 -1.248135 0.125834-2.959929 -3.328460 2.779155 0.477764 -1.233204 0.134265-2.239794 -3.281862 3.912379 0.438195 -1.091419 0.170016-2.021553 -3.176418 4.036685 0.378709 -1.175101 0.157015-2.471193 -3.377636 4.081913 0.356803 -1.243303 0.155867-2.454700 -3.129969 4.970331 0.277450 -1.288826 0.152280-2.583314 -3.756828 6.511278 0.314660 -1.232501 0.160559-2.992956 -4.041101 7.190459 0.306767 -1.310829 0.140091-3.503117 -4.257181 7.742464 0.294053 -1.411178 0.112980-3.488465 -4.333775 9.295128 0.277702 -1.334906 0.113967-3.358261 -4.405037 10.067354 0.268773 -1.291857 0.108590-3.037582 -4.388771 11.267651 0.272137 -1.241933 0.101795-3.513455 -4.613896 11.215679 0.308591 -1.328254 0.072373-3.442702 -3.981044 11.255382 0.253443 -1.252832 0.064646-3.308041 -3.797384 10.231709 0.259802 -1.155026 0.050551-3.692102 -3.716047 9.826992 0.321001 -1.084464 0.053841-4.290058 -3.968529 9.564763 0.427509 -1.050517 0.053942-4.751631 -3.771970 8.682611 0.464766 -1.051478 0.048183-4.804922 -3.149955 7.930370 0.455414 -0.979155 0.050271-4.884469 -2.860444 7.948858 0.477715 -0.905183 0.056071-5.067204 -2.745810 8.519472 0.551944 -0.788948 0.077710-5.001118 -2.944519 9.319675 0.643203 -0.709889 0.092506-5.227720 -2.626191 8.910508 0.677464 -0.724866 0.100453-5.404361 -1.870236 9.303678 0.683659 -0.684344 0.137435-5.757017 -1.956933 9.487750 0.766985 -0.676998 0.165107-6.155827 -1.880327 9.939527 0.853535 -0.629122 0.199957-6.086192 -2.190687 10.257499 1.016388 -0.567784 0.215325-6.368845 -2.290153 9.945227 1.046011 -0.574082 0.215337-6.615296 -1.353149 9.562090 1.045729 -0.553431 0.228728-6.119498 -1.516379 9.504618 1.105680 -0.467814 0.231380-5.666130 -1.285803 9.232105 1.177362 -0.378877 0.243084-6.078793 -0.960353 8.883161 1.192729 -0.439410 0.239417-5.996938 -0.935211 8.168589 1.238524 -0.442820 0.231024-5.982249 -0.659555 8.395283 1.270924 -0.382131 0.248620-5.731957 -0.854440 8.418558 1.345950 -0.324449 0.247178-6.089423 -0.890710 7.984393 1.423874 -0.376182 0.236267-6.379778 -0.108259 7.440970 1.343378 -0.496870 0.217022-5.659150 -0.618927 7.183190 1.405780 -0.397465 0.219976-5.138643 -0.744185 7.147906 1.430260 -0.399034 0.220794-5.715891 -0.699522 7.247758 1.414449 -0.521558 0.221020-4.962060 -0.485495 7.026542 1.374696 -0.490265 0.221022-4.089203 -0.477138 6.384100 1.330797 -0.522026 0.205239-4.871521 -0.877513 5.482040 1.358252 -0.733918 0.193935-4.870777 -0.873436 5.960895 1.354880 -0.792217 0.206974-4.532459 -1.574162 6.117861 1.420186 -0.860550 0.205185-4.418926 -1.535058 5.116288 1.382411 -0.961826 0.195250-3.693115 -1.037181 5.071099 1.300264 -0.944909 0.206569-3.234645 -1.419245 5.146464 1.322713 -0.960950 0.214387-3.358789 -1.686175 4.335678 1.327705 -1.117900 0.208716-2.894883 -1.803033 4.312829 1.318091 -1.121548 0.220060-1.493370 -1.534703 4.846024 1.247029 -0.989792 0.231814-1.672856 -1.712036 3.649716 1.209798 -1.161470 0.213429-2.629211 -2.037299 3.477695 1.234889 -1.333050 0.215121-1.633560 -1.758021 4.746590 1.148747 -1.243950 0.219363-2.708394 -2.615183 4.847615 1.223625 -1.414760 0.217721-2.874112 -2.639146 5.241297 1.170464 -1.459402 0.216387-2.371022 -2.762869 6.615746 1.140116 -1.396941 0.222561-2.822153 -2.823448 6.057792 1.089433 -1.565132 0.208461-2.335847 -2.722682 7.044985 1.019786 -1.466053 0.221022-2.446322 -2.707185 7.786366 0.986346 -1.487697 0.231440-1.456579 -3.073671 7.932904 0.945894 -1.433759 0.219885-1.735207 -2.545435 8.124431 0.827388 -1.437783 0.222739-1.710601 -2.825951 8.395835 0.807342 -1.432522 0.206834-1.659168 -3.031583 8.913946 0.782114 -1.314042 0.189646-1.950328 -3.000807 8.245699 0.728563 -1.306721 0.159767-2.658299 -2.955565 7.978272 0.714907 -1.298268 0.146661-3.274225 -3.011462 8.270110 0.730051 -1.242604 0.139279-3.122861 -3.175718 8.219548 0.746640 -1.059013 0.131583-4.354374 -3.711955 8.401252 0.825163 -1.075008 0.122723-4.979744 -2.944789 8.120838 0.728093 -1.066867 0.098816-4.865188 -2.646674 8.497390 0.668357 -0.850135 0.086284-5.010454 -2.940395 8.578322 0.669488 -0.715367 0.062928-6.052048 -3.757303 8.864219 0.736539 -0.678275 0.025220-7.590311 -3.838845 8.888731 0.719615 -0.779477 0.009066-7.327294 -3.695336 8.853474 0.678403 -0.642821 -0.005736-7.274497 -3.387518 8.834294 0.590440 -0.497954 -0.009927-7.107300 -3.946482 9.036826 0.604533 -0.370049 -0.010488-7.642134 -4.239133 9.295124 0.618886 -0.363356 -0.013708-8.467941 -4.252513 8.621088 0.547821 -0.451332 -0.025564-7.542772 -3.641014 8.676479 0.403264 -0.228152 -0.023063-7.241713 -3.855206 8.516006 0.359139 -0.122167 -0.025501-8.081743 -4.529971 9.122818 0.428633 -0.103379 -0.007529-8.514814 -5.086259 9.422167 0.462762 -0.113713 -0.001790-9.616416 -5.450968 8.828943 0.466513 -0.219996 0.007356-9.161025 -4.918601 8.892554 0.355484 -0.073512 0.027425-10.118578 -5.538282 8.838569 0.387582 -0.174584 0.038306-9.840205 -5.940513 9.685475 0.395464 -0.053447 0.054310-9.830909 -6.252688 9.680091 0.377188 -0.044015 0.051831-10.008808 -6.291534 10.157265 0.351372 -0.028556 0.056993-9.253104 -5.971442 10.674823 0.278432 0.100092 0.057900-10.026757 -6.612638 10.905653 0.347592 0.048301 0.056158-10.239813 -7.011892 10.901598 0.380921 0.051950 0.042360-10.132262 -6.765013 10.829107 0.333131 0.118625 0.037167-10.911628 -6.853370 10.529205 0.356538 0.089452 0.040390-10.691248 -7.232923 10.905289 0.411487 0.137665 0.041714-10.567941 -7.665926 10.505604 0.463588 0.141945 0.035889-9.584862 -6.628058 9.836391 0.290833 0.218066 0.036148-10.087648 -6.626411 9.567876 0.284149 0.113420 0.046602-9.584517 -6.784944 10.136812 0.312478 0.146151 0.060443-9.523846 -7.256206 10.009834 0.350817 0.097032 0.064943-9.229450 -6.982460 9.687422 0.331519 0.064110 0.075898-8.999277 -6.957539 9.310886 0.340193 -0.031815 0.080648-8.736214 -6.705165 8.502420 0.313610 -0.109453 0.097127-8.014320 -7.061605 8.343445 0.338514 -0.094380 0.107499-8.346953 -7.604914 8.063733 0.404744 -0.272709 0.120479-7.702209 -7.343234 7.336831 0.336726 -0.325716 0.123836-6.486384 -7.259952 6.992276 0.288509 -0.284885 0.132280-5.748808 -7.254282 6.668191 0.261584 -0.305992 0.136903-6.065417 -7.880239 7.128912 0.357660 -0.451457 0.157112-5.857444 -7.989765 6.889111 0.350854 -0.575824 0.162813-5.070884 -7.314716 6.350588 0.223461 -0.611673 0.168709-4.964026 -7.207250 6.314178 0.208953 -0.630534 0.167156-5.233763 -7.520893 6.275195 0.218594 -0.701617 0.160154-5.628212 -7.639505 6.838842 0.228784 -0.724592 0.159624-5.597884 -7.853126 7.510390 0.254014 -0.709647 0.147700-5.464380 -7.738544 7.829085 0.225031 -0.710211 0.128137-5.712018 -7.480632 8.049558 0.178489 -0.774651 0.115159-5.634802 -7.348073 8.392107 0.133980 -0.796428 0.105314-5.329667 -7.132033 9.080960 0.051976 -0.807194 0.100643-5.146202 -7.006640 9.430054 0.020265 -0.810650 0.102565-4.597729 -6.944368 9.799924 -0.022735 -0.809654 0.102104-4.440739 -6.865971 10.100715 -0.031836 -0.823497 0.102938-4.674075 -6.574245 10.301509 -0.086945 -0.928810 0.101501-4.641923 -6.418732 10.644722 -0.125960 -0.973093 0.091006-4.683328 -6.184412 11.057702 -0.177266 -0.993077 0.076137-4.671345 -5.922474 11.778470 -0.218017 -0.977637 0.059061-5.010373 -5.810173 12.618859 -0.206982 -0.976660 0.042998-5.108800 -5.648310 13.372248 -0.194509 -0.937109 0.024724-5.393884 -5.158951 13.974348 -0.202539 -0.895704 0.004909-5.652271 -4.743269 14.436756 -0.199785 -0.852325 -0.012670-6.399340 -4.331479 14.702568 -0.178065 -0.874895 -0.032144-7.051608 -4.152730 14.897132 -0.126352 -0.884825 -0.045771-7.031127 -3.771391 15.174090 -0.104887 -0.799047 -0.058348-7.301608 -3.357782 15.416878 -0.079162 -0.751330 -0.066265-7.384703 -3.123829 15.315559 -0.065419 -0.735694 -0.076580-7.420405 -2.707533 15.194857 -0.081480 -0.715521 -0.085654-7.369176 -2.546521 15.230955 -0.084651 -0.679082 -0.091613-7.237939 -2.389702 15.528709 -0.092088 -0.622468 -0.096196-7.181095 -2.132937 15.814158 -0.114215 -0.592402 -0.103002-7.303159 -1.929385 15.981425 -0.134743 -0.589847 -0.105389-7.320773 -1.765936 16.398784 -0.146017 -0.554679 -0.103153-7.502189 -1.808304 16.933739 -0.124609 -0.549836 -0.101204-7.693481 -1.673275 17.565964 -0.118465 -0.546397 -0.096988-7.460048 -1.475092 18.191835 -0.121128 -0.491872 -0.097519-7.486038 -1.257801 18.777602 -0.122933 -0.477519 -0.097290-7.479084 -1.171207 19.234225 -0.116241 -0.478091 -0.101049-7.485060 -1.213199 19.689768 -0.103118 -0.462704 -0.102097-7.470806 -1.244813 20.094079 -0.100004 -0.448017 -0.104092-7.597666 -1.280514 20.324023 -0.099298 -0.459624 -0.105322-7.609031 -1.326218 20.161742 -0.110779 -0.479514 -0.110440-7.632599 -1.480648 20.151940 -0.106547 -0.481888 -0.099283-7.340767 -1.619506 20.070602 -0.107547 -0.440592 -0.087626-7.039488 -1.829567 19.439199 -0.121036 -0.437410 -0.072743-6.810452 -1.819803 19.066355 -0.139809 -0.429184 -0.071946-6.647444 -1.875310 18.745222 -0.148858 -0.418383 -0.070088-6.424129 -2.022038 18.432557 -0.150963 -0.393775 -0.064818-6.220932 -2.130381 18.018807 -0.155682 -0.377432 -0.063266-6.291807 -2.269303 17.336511 -0.157332 -0.391258 -0.059204-6.223906 -2.386629 16.809727 -0.154651 -0.376533 -0.054790-6.199482 -2.509582 15.984814 -0.154639 -0.353762 -0.046746-6.158477 -2.604724 15.217074 -0.151876 -0.338300 -0.039189-6.010975 -2.637884 14.709975 -0.152835 -0.312732 -0.034262-5.900989 -2.668423 14.144200 -0.156685 -0.305609 -0.033867-5.842242 -2.716080 13.470059 -0.166380 -0.303217 -0.033640-5.748596 -2.857148 12.560674 -0.179850 -0.306994 -0.034172-5.816791 -2.923394 12.267100 -0.182783 -0.321056 -0.034384-5.622537 -2.995514 11.467693 -0.211076 -0.312250 -0.038492-5.552954 -3.000584 10.868016 -0.236041 -0.307947 -0.040053-5.442241 -3.046498 10.226623 -0.259411 -0.315169 -0.046892-5.484029 -3.110358 9.752659 -0.270632 -0.342138 -0.054514-5.451465 -3.158658 9.115946 -0.305557 -0.350313 -0.071110-5.167657 -3.127179 8.713250 -0.348764 -0.308715 -0.087324-5.057988 -3.198386 8.239185 -0.405285 -0.280046 -0.113774-5.188640 -3.323079 7.835173 -0.460764 -0.256289 -0.139315-5.605614 -3.457361 7.606195 -0.505202 -0.266882 -0.159575-5.824476 -3.542875 7.662748 -0.539329 -0.254301 -0.178746-6.105742 -3.639412 7.797623 -0.569738 -0.233786 -0.196361-6.300842 -3.585580 7.792817 -0.606865 -0.212368 -0.209787-6.262908 -3.342871 7.710370 -0.656364 -0.162199 -0.222605-6.067816 -3.024670 7.469517 -0.705462 -0.098790 -0.231922-6.175906 -2.766659 7.373221 -0.722694 -0.082823 -0.236430-6.299594 -2.613476 7.331536 -0.729173 -0.057458 -0.241687-6.268995 -2.405656 7.107517 -0.750080 -0.010287 -0.249753-6.348951 -2.297420 6.971261 -0.767073 0.012076 -0.261900-6.833828 -2.427484 6.866893 -0.757393 -0.012778 -0.271988-6.680878 -2.418506 6.932061 -0.773456 0.030168 -0.281409-6.965756 -2.717355 7.032055 -0.753484 0.007677 -0.285266-7.178156 -2.968676 7.053186 -0.732445 -0.034973 -0.282748-6.684657 -2.944488 7.133225 -0.753046 -0.012702 -0.280664-5.856168 -2.706210 7.132162 -0.793470 0.045173 -0.275784-5.844406 -2.602332 7.129566 -0.799645 -0.031305 -0.269566-6.189471 -2.666505 7.205950 -0.779625 -0.161140 -0.260999-5.911782 -2.537444 7.463291 -0.789619 -0.182530 -0.253356-5.737259 -2.500229 7.723490 -0.789670 -0.207183 -0.250381-5.746906 -2.502023 8.054142 -0.790317 -0.253312 -0.252836-6.164258 -2.543189 8.326340 -0.783715 -0.355867 -0.256730-6.233070 -2.479085 8.709326 -0.799548 -0.399052 -0.261655-5.766348 -2.422121 9.108570 -0.827730 -0.360372 -0.266483-5.127630 -2.296363 9.382047 -0.872110 -0.317372 -0.271362-5.319667 -2.310823 9.612673 -0.884659 -0.386512 -0.269926-5.482709 -2.306023 9.942021 -0.895089 -0.427838 -0.263627-5.207236 -2.212733 10.292033 -0.924171 -0.397717 -0.258594-5.250964 -2.288476 10.347389 -0.937011 -0.400439 -0.257426-5.436585 -2.433859 10.630063 -0.953244 -0.406300 -0.258033-5.681856 -2.568228 10.863213 -0.980463 -0.423463 -0.259745-5.956705 -2.787803 11.169097 -1.023581 -0.438291 -0.261626-5.997635 -2.902719 11.595525 -1.083289 -0.443029 -0.263915-5.137952 -2.865120 12.127975 -1.207537 -0.340304 -0.271608-5.172824 -2.984926 12.384832 -1.297416 -0.360631 -0.279138-5.545115 -3.250817 13.245591 -1.359251 -0.388618 -0.280384-6.175856 -3.683589 14.146725 -1.376393 -0.446485 -0.286348-5.981188 -3.644981 14.404684 -1.440151 -0.429511 -0.288870-6.135793 -3.812712 15.110677 -1.486130 -0.435032 -0.289542-6.936461 -3.959630 15.824714 -1.530772 -0.569562 -0.293281-6.421026 -4.318395 16.446320 -1.568485 -0.484282 -0.296613-6.752867 -4.343220 17.143190 -1.628488 -0.511921 -0.291624-7.069708 -4.680550 17.605285 -1.635456 -0.540220 -0.292289-6.455161 -4.849604 17.514190 -1.676657 -0.477237 -0.299737-6.663025 -4.698931 17.485994 -1.734110 -0.489222 -0.300316-5.952044 -4.693710 16.922275 -1.778466 -0.395817 -0.304682-6.908221 -4.745478 16.962024 -1.777135 -0.459701 -0.293848-6.967127 -5.186048 16.828740 -1.719137 -0.452593 -0.294019-7.423077 -5.160741 17.377063 -1.686944 -0.423460 -0.274254-6.712377 -5.066434 17.203625 -1.698793 -0.342246 -0.276350-7.505332 -5.006247 17.438499 -1.659754 -0.405102 -0.264710-7.450832 -4.804329 17.086233 -1.700697 -0.409887 -0.272690-7.232723 -4.727339 17.216449 -1.698237 -0.346513 -0.271401-6.792461 -4.434067 16.835063 -1.740916 -0.301312 -0.277310-6.784318 -4.647009 17.057859 -1.702123 -0.280891 -0.272470-7.248184 -4.914389 16.887344 -1.651296 -0.363645 -0.273145-7.008544 -4.578931 16.686086 -1.702035 -0.355391 -0.272813-6.827976 -4.609910 15.787762 -1.716449 -0.381974 -0.279096-6.551024 -4.739808 14.972168 -1.706523 -0.392063 -0.280771-6.260021 -4.582962 15.057212 -1.731960 -0.352158 -0.269125-6.983421 -5.135758 14.694567 -1.654842 -0.475679 -0.268782-6.090033 -4.903501 14.310637 -1.677253 -0.373214 -0.269195-5.943564 -4.584405 13.189395 -1.737583 -0.397532 -0.284816-7.055568 -4.730714 12.548565 -1.711586 -0.539254 -0.294904-6.271236 -4.623735 11.970614 -1.735358 -0.438010 -0.306329-7.108691 -4.784653 11.746462 -1.665703 -0.501659 -0.304235-6.460216 -4.419379 11.977373 -1.671533 -0.362501 -0.293842-6.501822 -4.983510 12.001989 -1.556597 -0.344657 -0.287533-7.124930 -4.748534 11.052591 -1.565109 -0.471368 -0.289993-6.952543 -4.394382 10.407989 -1.568085 -0.483767 -0.286785-7.209187 -4.468899 9.276201 -1.512134 -0.601724 -0.294959-5.917435 -3.700134 9.278739 -1.576830 -0.410929 -0.278122-5.776013 -4.158420 9.438063 -1.445268 -0.389398 -0.266895-6.109883 -4.572567 9.472023 -1.355412 -0.448106 -0.265336-6.501974 -3.887082 9.014996 -1.387372 -0.573716 -0.268892-6.192994 -3.313259 8.003812 -1.429906 -0.577539 -0.272456-5.118758 -2.818548 7.980724 -1.443632 -0.421572 -0.259286-5.489764 -2.994867 7.590744 -1.350545 -0.524285 -0.264990-6.249156 -2.716909 7.409103 -1.295857 -0.648843 -0.263609-5.633170 -2.182162 8.208695 -1.268882 -0.519801 -0.239720-5.295251 -2.377669 8.674929 -1.125320 -0.484251 -0.233526-4.770354 -1.961663 8.312623 -1.120150 -0.480368 -0.241912-6.125043 -1.317477 8.408082 -1.050978 -0.590788 -0.238276-5.037348 -0.874858 9.095983 -1.028613 -0.412699 -0.224879-5.615288 -0.991834 9.328740 -0.907497 -0.437336 -0.225376-6.136031 -0.488097 8.827415 -0.831627 -0.545062 -0.237654-6.385088 -0.336394 9.911277 -0.754055 -0.462301 -0.217052-6.015565 -0.305866 9.926077 -0.643456 -0.419527 -0.223662-5.541692 0.044200 9.427544 -0.620413 -0.422057 -0.234953-6.545872 0.231188 9.263187 -0.538082 -0.528837 -0.233411-6.016912 0.891558 10.052809 -0.526157 -0.477317 -0.218229-6.075897 0.622515 9.515908 -0.424532 -0.531780 -0.229177-6.162935 0.330407 8.791535 -0.315403 -0.635064 -0.246853-5.265614 1.457708 9.624966 -0.351104 -0.454149 -0.217415-5.450253 1.614752 10.025420 -0.254707 -0.482445 -0.215209-5.794324 1.428398 9.926014 -0.115946 -0.581613 -0.237750-5.849994 2.212624 10.091212 -0.106689 -0.549302 -0.233658-5.797370 2.564459 9.976677 -0.055461 -0.536384 -0.244980-5.509866 3.060669 10.563858 -0.014744 -0.437835 -0.235627-5.542385 2.409143 9.879651 0.074641 -0.495902 -0.260551-5.284275 2.509254 9.872116 0.127722 -0.458713 -0.248665-5.244989 3.112169 10.103703 0.140006 -0.498033 -0.229551-5.102789 2.961058 9.220075 0.184443 -0.570447 -0.229035-4.428983 3.481885 9.446417 0.167723 -0.492986 -0.198925-4.490155 3.277064 10.074746 0.243171 -0.512054 -0.179565-4.839554 3.006832 10.548672 0.305960 -0.586396 -0.176402-4.490975 3.231059 10.789184 0.293693 -0.575752 -0.175011-4.541402 3.321895 10.551876 0.289284 -0.626497 -0.180834-4.143260 3.360289 10.498888 0.277787 -0.611642 -0.181698-3.861864 3.327930 10.447672 0.280650 -0.634464 -0.181767-4.202060 3.183274 10.281001 0.307686 -0.745094 -0.182044-3.983389 2.773120 10.360955 0.356197 -0.766908 -0.171540-3.759329 2.438295 10.449573 0.390515 -0.770197 -0.157411-3.729407 2.355941 10.325639 0.393860 -0.827189 -0.145557-3.761077 2.263122 10.076669 0.396306 -0.884817 -0.134772-3.605274 2.113657 9.659622 0.389813 -0.908199 -0.120286-3.702243 2.029208 9.105286 0.390223 -0.934945 -0.106451-3.621393 1.758097 9.555464 0.424111 -0.908467 -0.083730-3.606418 1.464123 9.798115 0.460762 -0.932111 -0.080825-3.513650 1.275306 9.657070 0.469543 -0.910658 -0.076272-3.269029 1.204330 9.521788 0.442353 -0.878720 -0.075531-3.130307 0.935703 9.218200 0.427607 -0.847982 -0.077181-3.107938 0.637399 8.941351 0.430182 -0.806030 -0.070130-3.490431 0.243270 8.710879 0.459061 -0.831944 -0.068046-3.770269 -0.190613 8.638331 0.491066 -0.836480 -0.061598-3.938096 -0.404476 8.624844 0.500731 -0.824599 -0.052647-4.040216 -0.683795 8.528171 0.514851 -0.813824 -0.045187-4.367785 -1.144390 8.486140 0.539344 -0.820033 -0.035576-4.518230 -1.466885 8.347763 0.532211 -0.802388 -0.027312-4.195700 -1.538335 8.170411 0.506449 -0.739207 -0.024833-4.168021 -1.585970 7.758299 0.470758 -0.711676 -0.033031-4.738118 -1.998244 7.565885 0.491521 -0.778479 -0.044936-5.118814 -2.454889 7.612628 0.535998 -0.819419 -0.044764-4.958180 -2.531824 7.544916 0.532891 -0.821679 -0.044613-4.739778 -2.641500 7.222523 0.526838 -0.858962 -0.056520-4.866318 -2.731212 6.822465 0.517381 -0.945557 -0.077462-4.779932 -2.597533 6.502727 0.523120 -0.980013 -0.095448-4.641818 -2.540389 6.528393 0.487494 -0.999871 -0.107316-4.159105 -2.418115 6.498746 0.463328 -0.937583 -0.120075-3.964022 -2.541541 6.538335 0.437825 -0.889704 -0.129626-4.159186 -2.561622 6.467105 0.403889 -0.885744 -0.141617-4.675092 -2.871122 6.732280 0.414568 -0.880401 -0.148168-4.659126 -2.893173 7.015946 0.377608 -0.817175 -0.156147-4.988037 -2.881507 7.353827 0.327166 -0.772657 -0.167564-5.311156 -2.958476 7.798113 0.298774 -0.782226 -0.181856-5.607191 -3.008761 8.534525 0.291456 -0.787295 -0.190627-5.985832 -2.960792 9.516083 0.288667 -0.783234 -0.197196-5.609951 -2.816134 10.484364 0.259973 -0.688542 -0.205564-6.187637 -3.048797 10.969208 0.265323 -0.737731 -0.221220-6.305254 -3.252532 11.063233 0.242545 -0.718940 -0.230254-6.106483 -3.306442 11.192483 0.209311 -0.636784 -0.229222-6.311528 -3.412704 11.422037 0.183185 -0.646993 -0.235201-7.149731 -3.901382 11.594866 0.204130 -0.742569 -0.243282-7.437759 -4.479590 12.012365 0.214823 -0.732466 -0.242642-7.472120 -4.824946 12.413433 0.204343 -0.697007 -0.241019-7.504991 -4.990710 12.727584 0.183760 -0.670092 -0.241310-7.543884 -4.974500 12.906179 0.147369 -0.668284 -0.247376-7.382097 -4.849916 13.145366 0.109351 -0.621997 -0.244730-7.185563 -4.794872 13.668444 0.084137 -0.578118 -0.236150-7.175850 -4.916618 14.295300 0.086707 -0.561936 -0.226296-7.136755 -5.023948 14.886895 0.070957 -0.545101 -0.217985-6.797673 -5.080929 15.779539 0.024406 -0.492271 -0.201687-6.607633 -5.149223 16.132627 -0.009338 -0.474100 -0.190081-6.349442 -5.127125 16.484733 -0.058630 -0.450159 -0.176515-6.194535 -5.149167 16.864690 -0.076030 -0.433908 -0.163690-5.933476 -5.193232 17.236493 -0.070557 -0.405632 -0.151623-5.786193 -5.270684 17.635372 -0.049384 -0.385134 -0.145600-5.685965 -5.265543 17.778206 -0.019490 -0.364840 -0.146504-5.504516 -5.069987 18.180975 -0.007691 -0.342309 -0.153397-5.504722 -5.093168 18.519548 0.026995 -0.341833 -0.165158-5.634951 -5.076376 18.759377 0.062982 -0.332698 -0.176105-5.766534 -5.116578 19.237399 0.097086 -0.307280 -0.187474-5.932426 -5.176211 19.667079 0.137847 -0.291260 -0.199789-6.321915 -5.203274 20.212357 0.149211 -0.296987 -0.208611-6.264106 -5.054154 20.793537 0.118466 -0.279810 -0.219558-6.153120 -5.135541 21.194759 0.111330 -0.259137 -0.219178-6.702941 -5.051820 21.002494 0.066583 -0.346287 -0.222990-5.867753 -5.162575 22.527104 0.040719 -0.166453 -0.186030-5.851131 -5.771964 23.814613 0.066848 -0.146560 -0.162127-6.288142 -5.860048 22.943965 -0.000050 -0.305604 -0.162709-5.871285 -5.226008 23.711418 -0.135612 -0.232762 -0.109354-5.380750 -5.571714 24.264690 -0.129386 -0.182391 -0.070828-5.266459 -6.131839 23.937307 -0.111981 -0.178455 -0.034545-5.713692 -5.953133 23.807425 -0.148202 -0.191907 0.003226-5.514398 -6.251321 23.319376 -0.156678 -0.190781 0.007477-5.858604 -5.700890 23.346413 -0.234935 -0.174423 0.029053-5.571074 -5.676156 23.286932 -0.249510 -0.174779 0.018764-5.545530 -6.174576 22.765803 -0.221659 -0.160688 