ExtForce stiffnessValue  h   x desiredFrameZ   xdot   xddot   E   commandesPos  emgForce Fimp DesiredForceZ desiredDeltaZ 
-3.393756 -3.577999 -2.272904 0.337425 -1.351565 0.072974-2.936961 0.248717 11.629578 0.074839 -1.124735 -0.001423-3.790565 -1.742280 2.143356 0.056382 -1.065395 -0.126738-3.875305 -1.801815 0.048701 0.176217 -1.173095 -0.139632-3.850031 -1.793676 0.025745 0.174779 -1.171005 -0.132863-3.856722 -1.801883 0.018131 0.176488 -1.171041 -0.129971-3.857855 -1.799473 0.003335 0.176101 -1.174286 -0.129971-3.854717 -1.794189 0.013759 0.174232 -1.171433 -0.128261-3.864175 -1.790826 0.020063 0.174676 -1.172365 -0.128330-4.082900 -1.714062 -0.069411 0.178657 -1.217152 -0.136196-4.178091 -1.607126 -0.256506 0.192689 -1.285721 -0.152709-4.041497 -1.334519 -0.167576 0.194038 -1.357556 -0.171373-3.425238 -1.490221 -0.065999 0.251326 -1.359418 -0.179040-2.769075 -1.379642 -0.100591 0.300962 -1.376626 -0.187489-1.688313 -1.127177 -0.230033 0.302829 -1.329325 -0.195063-0.988069 -1.030330 -0.634211 0.276018 -1.360608 -0.224583-1.380057 -1.131775 -0.904739 0.273338 -1.508007 -0.248057-1.779552 -1.482109 -0.877829 0.281938 -1.632588 -0.257342-2.406033 -1.827083 -0.901966 0.275837 -1.739918 -0.254971-3.106911 -2.773526 -0.570010 0.334000 -1.855213 -0.252752-3.514868 -3.114091 -0.382566 0.343615 -1.978477 -0.241974-4.700361 -3.159431 -0.535016 0.352912 -2.208459 -0.204117-4.510229 -2.794569 -0.769513 0.296265 -2.298689 -0.169241-2.846540 -2.281532 -0.935982 0.214366 -2.204113 -0.135756-2.428345 -1.876960 -0.557398 0.154843 -2.152721 -0.116030-1.679254 -1.705381 -0.091377 0.117437 -2.081395 -0.128685-1.484361 -1.682971 0.636707 0.112756 -2.047010 -0.150594-0.685741 -1.301890 0.679581 0.055573 -1.922613 -0.172795-1.052732 -1.504379 0.312778 0.075146 -1.915916 -0.199385-3.334411 -2.376406 0.381743 0.221756 -2.089034 -0.250612-3.467333 -2.481561 0.430995 0.261607 -2.046225 -0.256739-4.292829 -2.648034 0.557016 0.310048 -2.061357 -0.258925-4.792856 -2.597520 0.695829 0.364317 -2.024506 -0.237346-4.567654 -2.086686 0.965527 0.382271 -1.890449 -0.197043-3.682955 -1.274566 0.999824 0.357113 -1.643139 -0.149102-3.246460 -0.361274 1.215715 0.316426 -1.463884 -0.099682-2.665546 0.387453 2.032338 0.308785 -1.240184 -0.059537-3.304093 0.640256 2.276975 0.332781 -1.211911 -0.059226-4.381517 0.900287 2.230376 0.344329 -1.224810 -0.084444-3.846700 0.917036 2.725281 0.323007 -1.017064 -0.091502-5.377496 0.643268 3.172659 0.340288 -1.071823 -0.116984-7.225159 -0.315796 2.994570 0.420715 -1.253215 -0.158297-7.418000 -1.123797 3.452017 0.473587 -1.178495 -0.168822-7.681741 -1.754463 3.201663 0.500211 -1.189154 -0.187855-8.877402 -1.943560 2.266157 0.506784 -1.378396 -0.196771-8.755704 -2.142525 1.745465 0.516922 -1.404225 -0.180175-7.979402 -2.109876 0.975707 0.507226 -1.343314 -0.157768-6.841939 -2.129678 0.199515 0.489475 -1.214449 -0.118056-6.827987 -2.431827 0.285261 0.562256 -1.202351 -0.071001-6.360678 -2.803055 0.228431 0.635425 -1.208678 -0.042223-5.869203 -2.475236 -0.218151 0.635196 -1.155773 -0.015991-5.009435 -2.180979 -0.506644 0.624836 -1.041695 -0.015309-5.124607 -2.419469 -1.117476 0.667180 -1.115018 -0.045076-5.698675 -2.303870 -1.463049 0.686546 -1.221029 -0.071083-5.399795 -2.167866 -1.539753 0.674349 -1.170208 -0.086299-5.107773 -2.132176 -1.613735 0.670510 -1.142608 -0.106377-5.012130 -2.198865 -1.908526 0.656907 -1.178827 -0.136620-4.930098 -2.042416 -2.233283 0.627186 -1.181704 -0.148381-4.867198 -2.083380 -2.580439 0.607860 -1.215327 -0.151358-5.249597 -2.191803 -2.412314 0.605646 -1.288227 -0.143233-4.992431 -2.629721 -2.346105 0.607739 -1.257664 -0.133340-4.997761 -3.058801 -1.766523 0.603160 -1.238757 -0.112283-5.393825 -3.619388 -0.978504 0.642808 -1.299906 -0.097530-5.985693 -4.097423 -0.621957 0.662559 -1.391420 -0.086387-5.568118 -4.167151 -0.143488 0.641118 -1.354562 -0.067760-5.487272 -4.413972 0.280420 0.651409 -1.361691 -0.061715-5.757727 -4.772351 0.231484 0.678943 -1.414017 -0.065975-5.778748 -4.760508 0.269719 0.669319 -1.457228 -0.070331-5.491281 -4.745296 0.197046 0.657765 -1.420530 -0.061104-5.125214 -4.691915 -0.145762 0.646117 -1.375992 -0.052056-5.094619 -4.563400 -0.374472 0.629541 -1.387097 -0.047934-5.337412 -4.685334 -0.570708 0.658978 -1.434196 -0.046829-4.950552 -4.565828 -0.698213 0.649524 -1.390075 -0.039926-4.640608 -4.434541 -0.663435 0.648492 -1.336886 -0.029181-4.369265 -4.384469 -0.764384 0.653157 -1.323564 -0.026924-4.223934 -4.201294 -0.697445 0.654279 -1.336503 -0.021944-4.054089 -4.050285 -0.751875 0.647404 -1.325711 -0.018259-3.755769 -3.845157 -0.849591 0.636196 -1.302204 -0.011178-3.790313 -3.718883 -0.882148 0.649099 -1.321835 -0.001606-4.200123 -3.792970 -0.849207 0.687756 -1.383828 0.008341-4.466432 -3.834991 -0.485167 0.723245 -1.399342 0.024283-4.507418 -4.064328 -0.001319 0.770331 -1.383886 0.040952-4.658341 -4.122913 0.227746 0.782719 -1.407508 0.040525-4.868346 -4.207784 0.396956 0.794507 -1.441976 0.023942-5.032158 -4.279147 0.602246 0.796325 -1.454090 0.015015-4.862884 -4.337152 0.697046 0.793718 -1.432412 0.010998-4.774997 -4.350594 0.735607 0.787386 -1.419546 0.010588-4.635084 -4.317853 0.745374 0.778959 -1.396572 0.009359-4.474928 -4.276252 0.657441 0.759692 -1.372784 0.004510-4.280097 -4.255226 0.541973 0.733985 -1.329969 -0.000195-4.169592 -4.184906 0.365981 0.694434 -1.314422 -0.010487-4.173222 -4.048892 0.098344 0.639986 -1.319795 -0.026078-4.038497 -3.790979 -0.193354 0.570559 -1.305548 -0.041707-3.815181 -3.555897 -0.421188 0.509887 -1.274875 -0.055803-3.659473 -3.430510 -0.426976 0.469838 -1.241117 -0.063727-3.591636 -3.281208 -0.445174 0.419287 -1.212010 -0.066332-3.534477 -3.108093 -0.462406 0.357091 -1.184698 -0.065515-3.507297 -3.140854 -0.544760 0.314471 -1.157111 -0.071322-3.741764 -2.878338 -0.591637 0.248509 -1.153928 -0.075450-4.027962 -2.956323 -0.537990 0.215507 -1.158029 -0.082991-4.385003 -3.092256 -0.289080 0.186372 -1.174838 -0.089761-4.663001 -3.284450 -0.028087 0.169452 -1.180099 -0.093442-4.675270 -3.400895 0.185369 0.136911 -1.174790 -0.097053-4.578327 -3.504444 0.374468 0.105970 -1.165603 -0.099028-4.375768 -3.493875 0.296648 0.066806 -1.160104 -0.103105-4.258919 -3.414754 0.245814 0.033687 -1.150301 -0.103848-4.162450 -3.408961 0.113132 0.007317 -1.145301 -0.109128-4.086664 -3.244952 0.026303 -0.035443 -1.130580 -0.115086-4.201069 -3.150090 -0.124026 -0.068324 -1.126759 -0.122527-4.242146 -2.976085 -0.153371 -0.106795 -1.116643 -0.125289-4.229930 -2.888141 -0.054566 -0.133084 -1.087673 -0.125648-4.274037 -2.764028 -0.038949 -0.162804 -1.071451 -0.128718-4.073853 -2.459394 0.073290 -0.224817 -1.032672 -0.134542-4.050871 -2.277013 0.135612 -0.271108 -1.023359 -0.141905-3.704824 -2.025031 0.128348 -0.338458 -0.984969 -0.147745-3.430396 -1.816931 0.115965 -0.400853 -0.955776 -0.151779-3.386665 -1.653317 0.113323 -0.429867 -0.961114 -0.157354-3.468277 -1.553127 0.161714 -0.468927 -0.981460 -0.169276-3.565562 -1.529208 0.214415 -0.492960 -0.993984 -0.180453-3.860479 -1.662298 0.151475 -0.495514 -1.026018 -0.194546-3.988469 -1.658940 0.163234 -0.521166 -1.049941 -0.206994-4.064185 -1.730541 0.110434 -0.536970 -1.061691 -0.217515-4.046696 -1.695951 0.122711 -0.554376 -1.063015 -0.219570-4.032031 -1.833182 0.160719 -0.551209 -1.072657 -0.222297-3.932162 -1.811372 0.215695 -0.560255 -1.062693 -0.219781-3.667550 -1.814695 0.265815 -0.557291 -1.049548 -0.219636-3.326781 -1.712079 0.038709 -0.581469 -1.033826 -0.224255-3.303330 -1.302088 -0.154811 -0.631647 -1.062237 -0.229624-3.356760 -1.356273 -0.268665 -0.629830 -1.089158 -0.234441-3.239763 -1.188268 -0.504085 -0.653331 -1.084450 -0.236240-3.377820 -1.152594 -0.494531 -0.655824 -1.112669 -0.240372-3.442446 -1.145581 -0.471599 -0.652772 -1.135740 -0.244828-3.411212 -0.919603 -0.438855 -0.671765 -1.134088 -0.245643-3.048786 -0.636444 -0.416931 -0.690825 -1.107235 -0.247720-2.695937 -0.477989 -0.406544 -0.658261 -1.083400 -0.248362-2.898400 -0.215108 -0.354677 -0.634998 -1.120294 -0.250614-2.886361 0.033335 -0.196035 -0.588771 -1.099593 -0.246006-2.837260 0.508457 0.071574 -0.580613 -1.062148 -0.239737-2.648294 0.444709 -0.206662 -0.523863 -1.047129 -0.251417-2.900256 0.890256 0.188841 -0.501503 -1.014218 -0.243870-3.544601 0.979692 0.641132 -0.420388 -1.041679 -0.246552-3.851698 0.648197 0.653237 -0.313504 -1.036334 -0.253512-4.116533 1.064432 1.519934 -0.272624 -0.946345 -0.241026-3.986863 1.025137 1.449532 -0.202842 -0.863920 -0.248496-4.434563 1.270051 1.866595 -0.151414 -0.828576 -0.249786-4.718559 1.376870 2.072684 -0.099208 -0.814836 -0.262626-5.135857 1.972606 1.813620 -0.105806 -0.760032 -0.264092-5.360381 1.996526 2.005561 -0.063226 -0.704397 -0.262189-4.894541 2.303161 1.957426 -0.072413 -0.623531 -0.271923-5.242077 2.704236 1.735170 -0.099152 -0.610080 -0.272586-5.303969 2.424790 1.674520 -0.066095 -0.578672 -0.268580-5.476974 1.716991 2.304323 -0.006327 -0.591208 -0.259421-4.117190 1.906958 1.497821 -0.116563 -0.493328 -0.269590-4.153342 2.335651 0.456824 -0.218361 -0.579146 -0.282379-4.729025 2.038417 -0.147734 -0.214682 -0.730374 -0.296410-3.991377 2.021334 0.228199 -0.240453 -0.628575 -0.280093-3.841789 1.355563 0.038126 -0.185796 -0.650468 -0.282596-4.747081 1.204995 -0.475261 -0.187635 -0.867945 -0.300006-3.823068 1.657473 -0.205378 -0.248323 -0.748100 -0.287323-3.458946 1.543913 -0.786413 -0.248795 -0.831126 -0.303343-3.893361 1.361980 -2.471964 -0.254264 -1.008785 -0.330582-3.139808 1.855165 -1.913711 -0.296257 -0.850997 -0.293893-3.192929 0.770839 -1.817815 -0.168854 -0.906059 -0.296330-3.028951 0.737066 -2.701183 -0.190719 -0.966111 -0.309652-2.946268 0.828918 -2.057903 -0.191439 -0.862814 -0.276855-3.341247 0.980575 -2.375749 -0.220255 -1.020054 -0.298685-3.750694 1.219437 -2.568992 -0.260099 -1.057536 -0.293827-3.260976 1.398908 -2.307046 -0.281208 -0.979524 -0.288993-3.296919 1.238060 -2.738084 -0.279308 -1.034969 -0.302550-3.134030 1.159060 -2.068827 -0.266966 -0.959800 -0.285574-3.083467 0.331682 -2.701660 -0.184218 -1.041056 -0.320937-2.718541 0.873938 -2.838097 -0.253006 -1.006945 -0.317024-2.822327 1.561126 -2.383256 -0.293487 -0.997327 -0.312618-1.804956 1.897606 -1.871581 -0.319068 -0.904952 -0.314923-3.290625 1.628565 -1.256870 -0.226742 -1.074963 -0.320158-2.281968 1.767191 -1.567867 -0.243597 -0.953800 -0.324669-2.264370 1.153672 -0.494707 -0.115514 -0.898862 -0.306193-2.002221 0.875188 -1.595893 -0.093517 -0.958945 -0.343262-3.229125 2.062731 -0.710588 -0.162225 -1.055928 -0.329258-3.046067 1.527181 -0.966682 -0.052206 -1.077418 -0.345864-3.543408 2.393096 -0.010128 -0.091980 -1.037114 -0.324763-4.512439 1.746012 0.094695 0.056595 -1.173890 -0.347620-4.301237 1.512058 0.207587 0.140666 -1.091209 -0.338319-3.533477 1.512011 0.335185 0.193517 -1.018324 -0.343282-3.333802 2.279077 0.634352 0.192004 -0.959483 -0.332238-3.439214 3.021788 1.279673 0.204156 -0.917515 -0.322968-3.536361 3.464833 0.561528 0.210387 -1.074495 -0.368637-3.374845 3.741348 1.618312 0.269484 -0.922547 -0.333480-3.490405 3.769798 1.426232 0.339137 -0.985054 -0.353125-3.433904 4.125125 1.893237 0.362171 -0.941139 -0.345297-3.001605 4.144645 1.836423 0.425995 -0.878216 -0.342164-3.720193 4.359702 1.474384 0.453437 -0.967042 -0.352959-2.473163 4.943126 1.874632 0.447356 -0.805613 -0.336261-3.562294 4.748723 1.822136 0.528286 -0.940672 -0.328808-3.300897 5.385307 2.153181 0.527355 -0.888373 -0.286895-3.341771 5.186114 2.195062 0.602435 -0.940017 -0.281901-2.835205 5.679630 2.313258 0.605531 -0.839345 -0.243351-2.418949 5.887881 2.374126 0.614267 -0.791268 -0.233988-3.255916 5.641303 1.641042 0.684517 -1.031815 -0.262901-3.433792 6.098351 2.467975 0.703045 -0.948151 -0.217495-2.918468 5.754565 2.197212 0.773269 -0.978199 -0.229283-2.917383 5.769039 1.831015 0.815832 -0.954481 -0.204094-2.820588 6.066647 2.327566 0.828746 -0.975231 -0.184839-3.037405 5.968864 1.216093 0.850555 -1.112028 -0.197204-2.539779 6.368647 1.421987 0.834721 -0.957380 -0.134988-2.229289 6.273399 1.507890 0.848352 -1.010832 -0.115486-2.402456 5.925649 0.756432 0.878435 -1.078692 -0.103150-1.974619 6.324502 0.904437 0.830731 -0.955224 -0.049912-0.749747 6.149308 1.014057 0.815353 -0.852509 -0.030947-2.026239 5.594404 0.632254 0.878043 -1.023073 -0.024763-1.512730 5.760522 -0.135909 0.802022 -1.074417 -0.038995-1.459863 6.030016 -0.080691 0.754205 -1.042736 -0.015224-1.012630 5.596623 0.202434 0.776871 -0.930399 0.020373-0.422058 4.960321 0.016140 0.800767 -0.910437 0.027206-2.175118 4.151137 -0.344530 0.795801 -1.243738 0.009215-1.376330 4.087564 -0.783755 0.732045 -1.167006 0.012185-0.162418 4.128981 -0.917642 0.639924 -0.991184 0.039553-0.735475 3.425385 -1.100150 0.646345 -1.134695 0.032166-1.338120 2.878050 -1.032951 0.672062 -1.255360 0.026512-1.367106 2.270085 -1.241469 0.692604 -1.279624 0.029470-1.681880 2.150500 -1.814928 0.650717 -1.360920 0.018746-1.248621 2.286427 -1.789123 0.584168 -1.333033 0.023628-1.527154 1.712090 -2.406504 0.606991 -1.417366 0.008912-1.139452 1.593197 -2.418543 0.573110 -1.334089 0.027478-1.353949 1.382035 -1.783396 0.584332 -1.322733 0.046805-1.297222 0.665429 -1.810714 0.633483 -1.342095 0.038726-1.184311 0.867400 -1.963911 0.566956 -1.332177 0.036984-0.946217 0.927169 -2.377420 0.511500 -1.308700 0.033806-0.476852 0.909511 -2.577402 0.470055 -1.268565 0.030201-1.298334 0.620272 -2.985566 0.472431 -1.399419 0.017230-1.081362 0.337856 -2.593010 0.486096 -1.326639 0.033181-0.641427 0.045974 -2.168109 0.481863 -1.232185 0.043429-0.606454 0.066573 -2.266386 0.463494 -1.235841 0.039722-0.778425 0.108645 -2.426023 0.446473 -1.268936 0.033046-0.807417 0.160282 -2.504832 0.421741 -1.284461 0.027562-0.805547 0.117499 -2.497924 0.411895 -1.286542 0.025342-0.888943 -0.017873 -2.499176 0.418970 -1.282247 0.028412-0.778749 -0.167952 -2.003367 0.434847 -1.243717 0.038701-1.092948 -0.339850 -1.962961 0.450474 -1.283383 0.034878-1.338420 -0.242014 -2.219975 0.428304 -1.315991 0.028181-1.343378 -0.189902 -2.275175 0.413111 -1.335835 0.018313-1.396677 -0.309254 -2.180715 0.425315 -1.314086 0.022327-1.728542 -0.410299 -2.136770 0.437514 -1.330854 0.024019-1.479777 -0.545749 -1.721301 0.455418 -1.270097 0.031573-1.619863 -0.795057 -1.375306 0.492655 -1.261372 0.035585-1.901174 -0.848344 -1.522818 0.503755 -1.282566 0.033595-1.694713 -0.739059 -1.268489 0.496380 -1.240338 0.038540-1.878546 -0.956121 -1.172745 0.533367 -1.254827 0.043153-2.259580 -0.928726 -1.418492 0.540618 -1.295508 0.044850-1.970427 -0.937705 -1.201061 0.549133 -1.243888 0.054070-1.896983 -1.105881 -0.828115 0.578575 -1.226149 0.058423-2.373582 -1.219368 -0.637920 0.595589 -1.265369 0.054303-2.191790 -1.195315 -0.580151 0.588041 -1.231183 0.047563-2.166283 -1.232113 -0.336754 0.592134 -1.239003 0.038217-2.550595 -1.215344 -0.522402 0.599528 -1.302482 0.025274-2.331332 -1.100001 -0.565356 0.589169 -1.268506 0.025057-2.276969 -1.163012 -0.301973 0.614503 -1.287962 0.023775-3.062605 -1.490157 -0.213112 0.673962 -1.385445 0.027103-2.895384 -1.415528 0.030581 0.688122 -1.359467 0.039806-2.562717 -1.423553 0.233218 0.698142 -1.326991 0.045613-3.042765 -1.464446 -0.069488 0.712827 -1.424266 0.038172-3.283813 -1.471596 -0.054935 0.719827 -1.463756 0.037359-3.241220 -1.561177 0.038274 0.736073 -1.465640 0.036731-2.671929 -1.539845 0.078279 0.736865 -1.383830 0.045116-3.056701 -1.562823 0.065963 0.751343 -1.442414 0.041483-3.153479 -1.600947 0.237803 0.766428 -1.457715 0.042103-3.326761 -1.900956 0.529475 0.816051 -1.462113 0.048120-3.509276 -2.101897 0.502120 0.853438 -1.465750 0.051244-3.292272 -2.031381 0.599216 0.854969 -1.427376 0.051682-2.704323 -1.834101 0.623492 0.835477 -1.359107 0.047693-3.495142 -1.790180 0.271908 0.838374 -1.476010 0.030727-3.407898 -1.679493 0.326438 0.833371 -1.450990 0.028610-3.310479 -1.803886 0.766286 0.856082 -1.393730 0.035505-3.250898 -1.957245 0.596354 0.875252 -1.376898 0.030975-2.653061 -1.509959 0.564510 0.817425 -1.282304 0.032955-2.664844 -1.241057 0.223677 0.784411 -1.295717 0.019767-3.509535 -1.157191 -0.062156 0.789917 -1.415051 0.002655-3.758000 -1.234225 0.295853 0.817126 -1.407033 0.002643-3.538160 -1.557318 0.425679 0.864839 -1.315238 0.001952-2.989082 -1.309040 0.343985 0.832192 -1.211422 -0.007140-3.498181 -1.444493 0.048377 0.844692 -1.280110 -0.036543-4.373291 -1.348225 0.006259 0.852843 -1.391402 -0.050116-4.144892 -1.651109 -0.041094 0.877577 -1.346986 -0.051041-3.477618 -1.777304 0.057809 0.891558 -1.193252 -0.032835-3.506790 -1.803113 0.195618 0.891193 -1.182994 -0.029786-3.589665 -1.835222 0.111358 0.891389 -1.211140 -0.034142-4.794923 -2.173390 -0.170251 0.927050 -1.374878 -0.041360-4.210878 -2.163348 -0.156236 0.899886 -1.282959 -0.029020-3.700935 -2.243110 0.022521 0.886952 -1.146882 0.000945-3.906405 -2.177341 -0.172877 0.867410 -1.199017 0.009201-3.625047 -2.075374 -0.245623 0.835743 -1.178352 0.027846-3.855603 -2.356285 -0.424902 0.856322 -1.206556 0.044695-4.061126 -2.425133 -0.200452 0.863719 -1.219683 0.062840-3.623080 -2.402081 -0.073443 0.848592 -1.159629 0.071185-3.605970 -2.278011 -0.351326 0.820747 -1.157524 0.057057-3.771558 -2.161818 -0.671808 0.792659 -1.224536 0.033523-3.472975 -2.270279 -0.616482 0.796861 -1.157658 0.036085-3.776588 -2.347970 -0.415915 0.812124 -1.187148 0.041389-4.150280 -2.378920 -0.106000 0.823067 -1.234134 0.048649-3.866065 -2.524271 -0.352146 0.831809 -1.194231 0.055565-3.557868 -2.459756 -0.482766 0.824775 -1.153689 0.067645-3.348298 -2.426651 -0.160926 0.818341 -1.116160 0.082369-3.647207 -2.450557 -0.191795 0.839700 -1.156027 0.092092-3.796790 -2.541461 -0.594623 0.843314 -1.208222 0.088626-3.508622 -2.410244 -0.531759 0.834000 -1.162168 0.103428-3.415142 -2.630162 -0.232134 0.875765 -1.109105 0.121324-4.056788 -2.758513 -0.031368 0.911447 -1.198360 0.123946-4.021550 -2.752782 0.021580 0.915966 -1.192213 0.124168-3.324907 -2.865224 -0.284639 0.907967 -1.131674 0.116486-3.632844 -2.628049 -0.470074 0.867281 -1.178124 0.112801-3.772423 -2.519581 -0.290288 0.838901 -1.201986 0.113328-3.843482 -2.568268 -0.193605 0.820936 -1.214494 0.113572-3.985358 -2.902021 -0.266074 0.828155 -1.236276 0.114350-3.391808 -2.924999 -0.074038 0.803545 -1.115585 0.131655-3.454548 -2.719327 0.269744 0.738712 -1.135833 0.138020-3.974346 -3.076810 -0.219997 0.734590 -1.256187 0.124887-3.918194 -3.106075 -0.161832 0.687797 -1.238055 0.136177-4.139058 -3.038251 0.141294 0.648500 -1.236328 0.150034-3.386929 -3.317038 0.097397 0.608073 -1.160269 0.150262-3.402161 -3.315649 0.172208 0.549971 -1.189948 0.148757-3.971363 -3.414340 -0.162668 0.509058 -1.292505 0.141099-3.615482 -3.753559 0.002731 0.483143 -1.230257 0.151128-3.608105 -3.825679 0.315742 0.449049 -1.214466 0.158425-2.930267 -3.805115 -0.004027 0.376156 -1.135563 0.156827-3.513492 -4.334287 -0.140672 0.394673 -1.210383 0.156495-3.958337 -4.675473 0.119727 0.380945 -1.291539 0.154290-4.230656 -5.273403 0.542498 0.418233 -1.262068 0.174971-3.507213 -4.903538 0.206864 0.301704 -1.190124 0.173186-3.742296 -4.951894 -0.554074 0.220954 -1.306558 0.150440-4.548016 -5.118000 -0.883330 0.184359 -1.438174 0.144671-4.083138 -5.532764 -0.232038 0.183947 -1.337160 0.168881-2.603602 -5.585468 0.259499 0.130299 -1.089011 0.199204-3.594738 -5.827391 0.417676 0.108294 -1.277516 0.183803-4.262377 -5.867522 -0.351741 0.045700 -1.506743 0.145153-3.247280 -5.460703 -0.694710 -0.077118 -1.322432 0.164312-2.866667 -5.727159 -0.390530 -0.103659 -1.245164 0.180416-3.258322 -6.831603 0.247055 -0.005160 -1.331948 0.181044-3.351455 -7.104627 -0.412249 -0.023244 -1.396381 0.171735-3.675895 -6.465581 -0.452794 -0.120352 -1.448532 0.178949-2.604596 -6.213176 -0.155544 -0.150314 -1.285556 0.199644-2.389113 -6.169818 -0.429240 -0.146619 -1.320055 0.194907-3.276056 -6.079244 -1.050528 -0.141136 -1.466945 0.186343-3.140060 -5.904825 -0.510228 -0.135302 -1.426145 0.203877-2.626768 -6.332740 -0.032451 -0.038759 -1.337484 0.220748-2.544393 -6.264889 -0.837885 -0.033102 -1.383775 0.207719-2.213667 -6.570174 -0.804790 0.036418 -1.309156 0.224399-3.358661 -6.313069 -0.695212 0.058470 -1.514171 0.204487-3.569332 -6.233361 -1.366716 0.076038 -1.579201 0.185922-3.283174 -5.885811 -1.013031 0.098343 -1.460983 0.205592-3.920741 -6.001533 -0.976256 0.166718 -1.606145 0.184226-4.075101 -6.219175 -0.835779 0.267227 -1.522458 0.201740-3.694159 -6.390842 -2.169325 0.333660 -1.588277 0.154143-3.463770 -5.331658 -1.385472 0.300031 -1.449650 0.188666-2.905672 -4.683588 -1.339724 0.311235 -1.357491 0.196463-3.472960 -5.007334 -1.053367 0.412735 -1.448777 0.196454-3.425536 -4.264456 -1.440796 0.388935 -1.428599 0.199684-2.283644 -4.553037 -0.921400 0.442402 -1.276292 0.208626-1.837984 -4.595895 -2.167660 0.444776 -1.278955 0.189043-2.597803 -3.793712 -1.628436 0.391940 -1.349184 0.192682-3.224631 -4.021686 -1.639832 0.435658 -1.415327 0.185313-4.387138 -4.356422 -1.098894 0.498508 -1.569849 0.181425-4.116100 -4.455303 -0.974143 0.531532 -1.436499 0.204523-3.443586 -5.344811 -1.520457 0.594589 -1.444770 0.181067-3.579200 -5.410338 -1.392858 0.617865 -1.404740 0.196623-3.765884 -4.596772 -1.158035 0.523756 -1.466064 0.196339-3.805305 -4.294520 -1.713964 0.478972 -1.522905 0.183977-3.919076 -4.685349 -1.945622 0.521992 -1.527886 0.194858-3.421820 -4.009984 -1.621421 0.448674 -1.486841 0.198908-3.137745 -4.897630 -1.867932 0.552676 -1.374551 0.218645-3.209947 -5.217826 -2.408653 0.579939 -1.522139 0.183686-2.528315 -4.787068 -1.257802 0.540774 -1.246801 0.230621-3.224166 -4.620304 -1.554358 0.527505 -1.442757 0.200282-3.364130 -5.022785 -1.192197 0.575858 -1.366749 0.213637-3.550503 -4.832391 -1.421125 0.537909 -1.490359 0.187851-4.760084 -5.430919 -1.065543 0.617562 -1.529975 0.205201-4.838156 -5.599178 -1.290870 0.596261 -1.649134 0.183443-3.998601 -5.674310 -0.838492 0.570137 -1.465330 0.197988-3.822015 -5.949423 -1.544266 0.531396 -1.526548 0.178920-4.219792 -6.241772 -1.271427 0.497614 -1.531624 0.190223-3.521921 -6.091658 -0.613191 0.375655 -1.414536 0.207000-3.394891 -6.619778 0.074813 0.305438 -1.412852 0.190760-3.077576 -6.988597 0.174993 0.201765 -1.323834 0.172272-3.280690 -7.140281 0.393770 0.074042 -1.382716 0.138095-3.071056 -7.338843 -0.007596 -0.037335 -1.355535 0.108904-3.471867 -7.463952 0.284215 -0.126363 -1.378433 0.098188-3.985945 -8.189362 0.298026 -0.132044 -1.401944 0.085675-4.017799 -8.292346 0.989057 -0.199211 -1.325730 0.089308-5.173000 -9.148354 0.597150 -0.199504 -1.502841 0.050290-5.258647 -9.105111 1.425598 -0.260980 -1.375127 0.063426-4.767116 -9.432995 1.025902 -0.336085 -1.358301 0.024974-5.157702 -9.743838 1.184814 -0.365989 -1.344949 0.016210-4.811748 -9.540340 1.847500 -0.456386 -1.161781 0.025648-5.698265 -10.303301 2.099670 -0.436054 -1.303901 -0.002443-5.503817 -10.478684 1.892988 -0.487716 -1.244085 -0.017530-6.051595 -10.728023 2.291621 -0.524050 -1.217453 -0.017117-5.166139 -10.633007 2.681020 -0.604031 -1.052684 -0.022742-6.012964 -11.039832 3.292436 -0.593785 -1.087640 -0.024451-5.955213 -11.192474 2.977675 -0.638406 -1.099078 -0.047112-6.529780 -10.939780 2.988600 -0.714096 -1.097047 -0.050390-6.322168 -10.924250 3.075891 -0.743001 -1.032360 -0.048296-5.753992 -10.478464 3.351023 -0.817685 -0.896521 -0.044827-6.385276 -10.525615 3.615421 -0.798439 -0.900686 -0.044604-6.916713 -10.587627 3.719119 -0.770626 -0.928214 -0.050050-6.577151 -10.326682 3.769263 -0.772164 -0.817686 -0.052588-6.899712 -10.032867 3.625142 -0.765193 -0.824382 -0.062828-7.356239 -9.465382 3.387172 -0.770708 -0.873155 -0.076120-7.953459 -9.517699 3.481971 -0.688942 -0.892380 -0.076209-7.434419 -9.145148 3.489888 -0.670057 -0.809674 -0.077813-7.813664 -8.848836 3.439001 -0.627892 -0.844975 -0.084283-8.020237 -8.456476 3.265254 -0.583185 -0.867489 -0.091539-8.226240 -8.142605 3.147281 -0.558792 -0.900766 -0.098407-8.239911 -7.734810 2.966558 -0.545045 -0.909052 -0.103458-8.052226 -7.351419 2.869779 -0.545171 -0.863088 -0.107291-8.002573 -7.194054 2.790188 -0.524834 -0.846066 -0.115022-8.054978 -6.976088 2.710309 -0.508309 -0.857762 -0.125235-8.218535 -6.853943 2.712599 -0.475455 -0.852728 -0.128205-8.188918 -6.647900 2.946248 -0.446624 -0.828211 -0.129517-7.805649 -6.205158 2.874202 -0.455524 -0.808096 -0.135731-7.839831 -5.698271 2.366756 -0.482443 -0.876137 -0.139014-7.660387 -5.189241 1.840270 -0.524640 -0.885143 -0.133794-7.185022 -4.821641 1.711925 -0.567799 -0.822581 -0.124592-7.176761 -4.764236 1.743623 -0.578918 -0.817431 -0.121437-7.145427 -4.698421 1.676907 -0.608679 -0.827980 -0.127505-7.088325 -4.607627 1.633803 -0.639712 -0.813012 -0.132944-6.931505 -4.519238 1.521247 -0.657865 -0.812330 -0.140736-6.819750 -4.621784 1.539225 -0.642501 -0.812914 -0.146848-6.669482 -4.466073 1.751117 -0.645519 -0.794874 -0.147497-6.264347 -4.336456 1.673114 -0.655880 -0.778718 -0.157624-5.892462 -4.120048 1.473195 -0.680137 -0.767648 -0.168819-5.946162 -3.896860 1.152443 -0.698079 -0.824604 -0.185079-5.317235 -3.485900 0.908985 -0.738018 -0.773348 -0.189982-5.176288 -3.304880 0.918884 -0.730955 -0.766458 -0.181716-5.468518 -3.253218 0.846047 -0.708758 -0.833709 -0.176560-5.225287 -3.380525 1.066580 -0.677646 -0.804016 -0.161909-4.649686 -3.280394 1.202543 -0.688440 -0.749702 -0.151811-4.874880 -3.227543 1.140189 -0.700198 -0.829898 -0.154610-4.231889 -2.849256 0.851199 -0.761042 -0.803519 -0.156767-3.897688 -2.583294 0.688107 -0.799134 -0.803455 -0.156978-3.848300 -2.433897 0.586702 -0.803103 -0.825746 -0.152234-3.835315 -2.618367 0.816212 -0.748429 -0.822712 -0.135072-3.586900 -2.618476 1.029613 -0.716685 -0.806649 -0.119910-3.861329 -2.519919 1.186412 -0.691539 -0.861888 -0.105913-3.822226 -2.293195 1.067726 -0.701784 -0.896515 -0.099515-3.286902 -2.200971 0.715544 -0.721787 -0.887708 -0.101136-3.298842 -2.126760 0.625282 -0.733794 -0.912512 -0.102039-3.336199 -2.171273 0.864368 -0.730375 -0.926494 -0.100478-3.078110 -2.228735 1.201952 -0.724632 -0.897937 -0.098152-2.997445 -2.318589 1.363985 -0.710805 -0.902193 -0.100668-3.277148 -2.373275 1.315331 -0.703391 -0.969454 -0.107627-2.926937 -2.243529 1.370974 -0.719204 -0.932923 -0.105771-2.427135 -2.085168 1.462376 -0.741802 -0.892664 -0.105556-2.684677 -2.055413 1.400997 -0.750763 -0.961817 -0.114502-2.634366 -2.040773 1.318332 -0.758195 -0.973582 -0.120896-2.389973 -1.835415 1.397902 -0.789673 -0.953661 -0.127834-2.199452 -1.693882 1.533120 -0.814206 -0.932090 -0.136431-2.594846 -1.847344 1.505122 -0.795859 -1.007513 -0.152990-2.846820 -1.771267 1.609022 -0.812588 -1.056921 -0.163846-2.767276 -1.729595 1.778622 -0.839560 -1.044518 -0.169574-2.181182 -1.632160 1.731278 -0.885791 -0.991868 -0.176605-2.350011 -1.776741 1.750276 -0.897180 -1.054144 -0.185693-2.558468 -1.933819 1.824665 -0.900970 -1.102460 -0.189161-2.465734 -1.945651 1.987068 -0.915543 -1.099669 -0.187998-2.143175 -1.857817 2.069527 -0.938908 -1.068584 -0.188595-2.195224 -1.881005 1.963446 -0.943571 -1.110306 -0.196584-2.586236 -1.965125 1.896329 -0.928069 -1.189447 -0.202654-2.698865 -2.025757 1.915460 -0.915745 -1.203408 -0.200914-2.409755 -1.969615 2.013769 -0.920000 -1.148982 -0.193874-2.433430 -1.992770 2.041160 -0.911068 -1.134706 -0.191434-2.590014 -1.937688 1.955719 -0.909223 -1.142835 -0.193819-2.658299 -1.820210 1.937925 -0.904930 -1.130951 -0.193954-2.699903 -1.810211 2.090618 -0.879321 -1.105265 -0.188340-2.878254 -1.631909 2.152750 -0.842005 -1.109393 -0.187188-2.833305 -1.547487 2.053670 -0.843760 -1.108469 -0.189529-2.783103 -1.452369 1.920446 -0.850881 -1.106453 -0.192083-2.821606 -1.449085 1.825281 -0.848569 -1.102901 -0.193948-2.874812 -1.358358 1.823678 -0.851518 -1.095743 -0.194909-2.937133 -1.320321 1.837118 -0.848988 -1.090417 -0.197015-3.054163 -1.281110 1.933070 -0.843990 -1.082382 -0.196941-3.137893 -1.375337 1.911715 -0.823893 -1.076433 -0.198375-3.207303 -1.438007 1.953705 -0.818478 -1.068055 -0.198964-3.337806 -1.530677 1.955124 -0.817103 -1.069224 -0.202044-3.409356 -1.547050 1.882667 -0.838830 -1.065127 -0.205002-3.442039 -1.565173 1.850306 -0.859322 -1.051448 -0.204910-3.476654 -1.695380 1.826355 -0.862742 -1.033223 -0.203617-3.541589 -1.773314 1.855884 -0.871036 -1.017014 -0.201867-3.644896 -1.921969 1.996726 -0.860810 -0.994266 -0.198500-3.725578 -2.017006 2.009972 -0.860035 -0.981411 -0.198457-3.794778 -2.011478 1.906583 -0.878099 -0.981957 -0.202912-3.742365 -2.027382 1.849374 -0.904168 -0.958483 -0.205922-3.794724 -2.116890 1.742165 -0.924918 -0.952214 -0.211127-3.835811 -2.223896 1.766202 -0.938283 -0.929410 -0.212635-3.937675 -2.293803 1.854165 -0.959489 -0.907636 -0.215823-4.012025 -2.327317 1.833770 -0.962829 -0.904666 -0.219412-4.048540 -2.380592 1.824930 -0.959944 -0.895522 -0.221703-4.111327 -2.417969 1.796866 -0.953647 -0.892001 -0.224793-4.267112 -2.404990 1.844733 -0.942445 -0.890884 -0.224604-4.236394 -2.349164 1.860894 -0.936984 -0.868275 -0.223347-4.095332 -2.226400 1.812657 -0.936796 -0.831805 -0.223667-4.001113 -2.072342 1.682643 -0.941604 -0.811555 -0.227350-3.975094 -1.965831 1.545065 -0.939829 -0.802929 -0.232922-3.826486 -1.877384 1.526325 -0.933351 -0.768652 -0.233901-3.840760 -1.827644 1.545147 -0.923425 -0.756425 -0.235391-3.883070 -1.847909 1.480779 -0.909690 -0.767836 -0.239806-3.821223 -1.854142 1.458494 -0.904343 -0.764797 -0.241382-3.854511 -1.943779 1.458081 -0.899574 -0.773654 -0.242739-3.866146 -2.080708 1.467609 -0.900893 -0.778798 -0.243367-3.802650 -2.150925 1.460414 -0.913100 -0.774949 -0.242575-3.926504 -2.225877 1.444005 -0.914652 -0.805615 -0.239624-3.762695 -2.258075 1.474460 -0.919346 -0.790564 -0.231215-3.781591 -2.357682 1.578272 -0.910283 -0.789181 -0.223259-3.760437 -2.465650 1.724356 -0.904939 -0.773428 -0.215182-3.863628 -2.560036 1.865637 -0.901312 -0.764337 -0.209049-3.828656 -2.565528 1.888345 -0.907777 -0.749630 -0.205557-3.761133 -2.560592 1.861673 -0.912265 -0.733212 -0.201857-4.027644 -2.660052 1.852081 -0.891423 -0.763279 -0.198922-4.121674 -2.675088 1.846993 -0.871592 -0.762691 -0.193212-4.092189 -2.626290 1.891059 -0.857188 -0.729642 -0.184043-3.966166 -2.524094 1.845069 -0.851090 -0.694926 -0.178538-3.672023 -2.418151 1.835768 -0.846123 -0.640455 -0.171906-3.768579 -2.398230 1.839441 -0.815571 -0.637129 -0.164690-4.092648 -2.390225 1.806490 -0.766719 -0.658276 -0.151254-3.984369 -2.284399 1.815254 -0.735811 -0.614859 -0.133342-3.761871 -2.164330 1.786161 -0.699343 -0.559270 -0.113123-3.805418 -2.166872 1.743773 -0.649999 -0.543713 -0.094352-4.087368 -2.170367 1.734999 -0.593156 -0.558894 -0.073050-3.856124 -2.221736 1.665626 -0.546346 -0.514339 -0.055838-3.887137 -2.151413 1.627660 -0.525110 -0.503996 -0.051082-4.113031 -2.168577 1.585722 -0.497997 -0.518423 -0.054384-4.105274 -2.132294 1.554349 -0.480431 -0.497585 -0.054349-3.699389 -2.071688 1.599593 -0.476760 -0.427788 -0.047218-4.071931 -2.316915 1.613712 -0.447875 -0.460604 -0.041001-4.435138 -2.520227 1.610140 -0.435536 -0.502577 -0.033128-4.388146 -2.717825 1.691043 -0.443289 -0.476067 -0.022479-4.085452 -2.914765 1.703591 -0.476533 -0.409939 -0.011228-4.561469 -3.238043 1.692133 -0.489045 -0.469034 -0.009520-4.654215 -3.531703 1.793387 -0.506815 -0.457287 -0.002548-4.127129 -3.597724 1.891817 -0.558506 -0.360576 0.003644-4.783709 -4.117754 1.879930 -0.585697 -0.413911 -0.009156-4.770161 -4.272868 1.944885 -0.602550 -0.386071 -0.011621-4.794426 -4.443448 2.028333 -0.632969 -0.369450 -0.018390-4.371324 -4.500328 2.075611 -0.684931 -0.268238 -0.019332-4.808622 -4.777346 2.040566 -0.693945 -0.302040 -0.026355-5.140069 -5.043128 1.980150 -0.703601 -0.324209 -0.034321-5.257176 -5.071057 2.255264 -0.726081 -0.268275 -0.032083-4.963035 -5.163164 2.229187 -0.737831 -0.209553 -0.034620-5.115367 -5.207112 2.231116 -0.756326 -0.206802 -0.042080-5.315568 -5.226785 2.208139 -0.767675 -0.227658 -0.044829-4.770607 -4.974153 2.194910 -0.814078 -0.154186 -0.037095-4.496278 -4.990722 2.191076 -0.831002 -0.106516 -0.029164-5.025642 -5.010375 2.294987 -0.829202 -0.168319 -0.023837-4.524832 -5.123687 2.347573 -0.832964 -0.129282 -0.019214-4.894921 -5.199899 2.479531 -0.825495 -0.214647 -0.016792-4.130815 -4.995618 2.406599 -0.867917 -0.208594 -0.012654-4.726741 -5.372023 2.336905 -0.834412 -0.366817 -0.014095-4.135159 -5.106183 2.152988 -0.888998 -0.392242 -0.006122-3.791514 -5.235804 2.234350 -0.881733 -0.414992 0.007651-4.036443 -5.158591 2.126836 -0.888099 -0.563927 0.014430-3.899879 -5.028320 2.235564 -0.900468 -0.669672 0.023744-4.454074 -5.018235 2.183185 -0.882017 -0.886699 0.030700-2.757702 -4.682432 1.994439 -0.941989 -0.782462 0.045254-2.800174 -4.478164 1.991713 -0.966742 -0.932246 0.053462-2.243125 -4.202374 1.898968 -1.028816 -1.007637 0.052228-2.314911 -4.219688 2.124619 -1.053408 -1.139861 0.038093-2.651133 -4.324787 1.940474 -1.071732 -1.319920 0.015529-1.337640 -4.261418 1.907031 -1.132118 -1.265290 0.016057-1.075179 -4.258964 2.270806 -1.147858 -1.306245 0.029665-1.335747 -4.329096 2.754044 -1.126776 -1.432962 0.041757-0.882613 -4.536505 2.741896 -1.100904 -1.453349 0.050026-0.555269 -4.308464 2.882081 -1.115334 -1.482193 0.060914-0.306830 -4.060568 2.686074 -1.130783 -1.523952 0.0581340.033279 -3.717905 2.322647 -1.156511 -1.563156 0.037950-0.259094 -3.249605 2.277627 -1.164025 -1.621724 0.0176500.181657 -2.906372 2.538686 -1.148538 -1.527270 0.0136390.034351 -3.142741 3.087645 -1.037367 -1.500486 0.010433-0.104289 -3.104635 3.098090 -0.961810 -1.545541 -0.012387-0.546520 -2.642470 3.246034 -0.926124 -1.601349 -0.031231-0.120332 -2.026536 2.305250 -0.942177 -1.647162 -0.081822-0.423127 -1.387938 2.145496 -0.941219 -1.677882 -0.1024890.093410 -1.099255 2.218371 -0.889914 -1.572408 -0.1127620.008195 -1.427990 2.791888 -0.738885 -1.555991 -0.122498-0.626766 -1.450806 3.022574 -0.636190 -1.635790 -0.141959-1.004655 -1.143593 2.411540 -0.574727 -1.773434 -0.163916-0.668362 -0.626380 1.853143 -0.549658 -1.793937 -0.160955-0.115097 -0.532155 2.143224 -0.455207 -1.717181 -0.122372-0.707748 -1.179873 1.914336 -0.251948 -1.919979 -0.110800-0.978107 -1.105907 2.187864 -0.161285 -1.982004 -0.073602-0.651722 -0.912014 2.288473 -0.087972 -1.958117 -0.0306160.129862 -0.273121 2.111781 -0.073762 -1.928482 -0.0056970.304542 -0.447181 2.180405 0.017866 -1.921876 0.0036550.150680 -0.080691 1.995130 0.031451 -2.023777 -0.009507-0.256137 -0.221987 1.850947 0.124203 -2.076974 -0.021896-0.034696 0.508585 1.747995 0.083588 -2.085106 -0.047043-0.295848 0.359336 1.855188 0.163908 -2.072661 -0.067689-0.177830 0.104205 1.984997 0.246602 -2.047538 -0.099066-1.433316 -0.185166 2.399053 0.357145 -2.200046 -0.134346-1.567848 -0.125362 2.262219 0.404388 -2.234354 -0.166840-1.989830 0.099339 1.925846 0.447936 -2.342850 -0.172396-2.053703 0.650673 1.570985 0.444205 -2.370499 -0.159161-1.222298 0.700973 1.465455 0.480917 -2.224044 -0.139083-1.127088 1.380220 2.138285 0.483324 -2.139705 -0.111343-1.369510 1.114033 2.426297 0.559452 -2.132900 -0.108143-1.111108 1.409149 2.315972 0.581010 -2.049682 -0.104368-1.649238 1.865526 2.091533 0.547424 -2.066564 -0.115894-1.026336 2.317076 1.668586 0.481916 -1.951733 -0.140202-1.852155 2.284270 1.474438 0.489129 -1.925205 -0.172842-2.714864 1.704459 1.537855 0.582430 -1.931698 -0.191703-2.975233 1.275761 2.100743 0.697562 -1.768281 -0.195447-3.947948 0.891516 2.674902 0.842813 -1.726022 -0.208673-4.072741 1.159693 2.702672 0.934120 -1.618366 -0.195696-4.466032 1.641955 2.268517 1.018139 -1.539148 -0.167236-4.977954 1.895295 2.372894 1.105926 -1.467204 -0.134395-4.915250 2.284359 2.399986 1.162887 -1.319217 -0.111471-5.788949 1.925829 2.422207 1.234514 -1.327111 -0.110157-5.591395 2.310767 2.595565 1.195881 -1.190739 -0.097971-5.626121 2.450580 2.586284 1.136098 -1.111831 -0.104292-5.748363 1.731853 1.796793 1.110101 -1.118116 -0.136494-5.778214 1.952821 1.833237 1.010376 -1.043729 -0.137606-6.675862 0.705994 1.797716 1.054021 -1.123239 -0.156289-6.971519 -0.085061 2.140942 1.095405 -1.111510 -0.152089-7.209393 -0.473718 2.021330 1.053630 -1.156565 -0.146469-7.177208 -1.385407 1.442156 1.085780 -1.187306 -0.138666-7.014409 -1.306766 0.894995 0.986330 -1.167347 -0.118428-6.570223 -1.731979 0.788098 0.945286 -1.127469 -0.095525-6.004328 -2.222649 0.836454 0.922144 -1.010811 -0.062056-5.446508 -2.330754 0.565750 0.840862 -0.952437 -0.039471-5.734138 -2.581658 0.839570 0.825986 -0.923883 0.002575-6.063498 -2.846107 0.247720 0.792682 -1.035707 0.006460-6.929846 -2.837179 -0.404460 0.754288 -1.172375 0.015122-6.634512 -2.868867 -0.781731 0.695836 -1.102538 0.023199-7.333170 -3.470475 -0.571526 0.737309 -1.171169 0.022575-7.284198 -4.560190 0.253771 0.804523 -1.141829 0.029947-7.116372 -4.410307 -0.004714 0.736754 -1.130997 0.029027-7.294398 -4.351024 -0.317431 0.671278 -1.153740 0.034349-5.318555 -3.685995 -0.435171 0.496782 -0.901727 0.055016-5.744186 -4.255156 -0.400555 0.503354 -0.968836 0.056047-6.843760 -5.033403 -0.654830 0.541210 -1.169789 0.046264-5.955836 -5.144855 -0.306485 0.490451 -1.027390 0.070906-6.739750 -5.602363 -0.166134 0.499096 -1.115964 0.089767-7.082115 -5.912495 0.046538 0.484869 -1.195287 0.105473-7.064577 -6.643652 0.172142 0.516683 -1.253173 0.118779-5.841313 -6.430682 -0.303821 0.395100 -1.147408 0.135609-6.479553 -6.149309 0.016334 0.303235 -1.268804 0.152183-5.692405 -6.715349 0.188425 0.271796 -1.221818 0.159895-4.821071 -7.115909 0.792907 0.192737 -1.114974 0.158899-4.881804 -7.301232 0.997803 0.105180 -1.171232 0.138345-5.210574 -7.602086 0.523098 0.015477 -1.294638 0.107371-5.865328 -7.823333 0.659720 -0.024660 -1.411725 0.103561-5.947269 -8.455840 1.238019 -0.025483 -1.397250 0.114489-5.806410 -9.078075 1.919760 -0.007244 -1.319655 0.131223-5.945633 -9.438412 2.188684 -0.035195 -1.370962 0.124076-5.910711 -9.072567 2.015838 -0.147105 -1.419942 0.114308-5.679022 -8.728888 1.485826 -0.245313 -1.382630 0.111964-4.590885 -8.265083 1.552909 -0.366388 -1.208559 0.117745-4.472748 -8.226397 2.160916 -0.400985 -1.153867 0.112686-4.521538 -8.433230 2.293311 -0.390153 -1.111128 0.103693-4.801333 -8.214972 2.680852 -0.410603 -1.086813 0.099402-4.979490 -8.113035 2.632733 -0.419965 -1.086508 0.087433-5.345677 -7.951554 2.369198 -0.443972 -1.131609 0.068338-5.431008 -7.421906 2.118743 -0.518899 -1.124793 0.057696-5.740339 -6.972752 2.187965 -0.556073 -1.141412 0.049584-5.407546 -6.975059 2.064552 -0.538506 -1.076019 0.043743-5.229182 -6.760370 2.434081 -0.510336 -1.012144 0.043185-5.370354 -6.395307 2.378759 -0.505582 -1.004141 0.034654-5.055862 -5.831304 2.674602 -0.522557 -0.957465 0.027583-5.180651 -5.343703 2.019000 -0.544674 -0.986963 0.005997-4.895536 -5.014030 1.698412 -0.551058 -0.927278 -0.003653-4.771525 -4.816788 1.720252 -0.527180 -0.872271 -0.009421-5.171786 -4.545508 2.399479 -0.474811 -0.867886 -0.011749-5.385715 -4.348001 2.227550 -0.424820 -0.879733 -0.025894-5.066020 -3.934835 1.978083 -0.427384 -0.812635 -0.029012-4.796864 -3.408264 2.038562 -0.434584 -0.777500 -0.036529-4.829419 -3.029136 1.859480 -0.416807 -0.772506 -0.046214-4.552299 -2.745885 1.786270 -0.416756 -0.727372 -0.047568-4.434117 -2.435863 2.000044 -0.406062 -0.688763 -0.045694-4.276009 -2.129645 2.332435 -0.403103 -0.644380 -0.041128-4.022512 -1.859242 2.270288 -0.401626 -0.624947 -0.044618-3.653959 -1.282702 2.128862 -0.447032 -0.573228 -0.037875-3.975875 -1.261030 2.344539 -0.432631 -0.603392 -0.036714-4.325719 -1.235444 2.734573 -0.415925 -0.653341 -0.039674-4.256156 -1.264115 2.941829 -0.410234 -0.630497 -0.043617-3.757291 -0.860621 2.635278 -0.477727 -0.595248 -0.056680-3.567744 -0.738342 3.603768 -0.479372 -0.522982 -0.048257-4.389440 -1.245826 4.297458 -0.406175 -0.647911 -0.066800-4.566753 -1.230375 4.314741 -0.412579 -0.671449 -0.074040-3.188582 -0.953576 4.481467 -0.460333 -0.506077 -0.068372-3.147605 -0.634370 4.649813 -0.498816 -0.549408 -0.073849-3.909432 -0.558425 4.673614 -0.490883 -0.709597 -0.076979-3.898501 -0.580535 5.180903 -0.474082 -0.701911 -0.054556-3.440023 -0.640794 5.918261 -0.455357 -0.642646 -0.028992-3.026302 -0.659363 6.718070 -0.438544 -0.592189 -0.005994-3.167932 -0.760680 7.127726 -0.415621 -0.664996 -0.001992-3.437826 -0.659035 7.454735 -0.422167 -0.721621 0.004800-3.155587 -0.580864 8.323461 -0.418495 -0.694349 0.022893-2.812885 -0.541427 8.672186 -0.416179 -0.704080 0.031317-2.663322 -0.324114 8.143987 -0.441978 -0.786217 0.035376-2.119497 -0.012292 8.923098 -0.455219 -0.686658 0.072356-2.097111 -0.215953 9.684350 -0.397622 -0.686211 0.092816-2.341569 -0.477451 10.550082 -0.335647 -0.693188 0.106660-2.458645 -0.623429 11.101735 -0.294911 -0.710647 0.107964-2.751593 -0.381936 10.635448 -0.324312 -0.821495 0.089758-2.455093 -0.115436 10.871519 -0.337981 -0.767829 0.101187-2.444312 -0.291968 11.380583 -0.292175 -0.757845 0.108253-2.563406 -0.778744 12.220595 -0.194036 -0.728473 0.124395-2.436356 -1.081640 12.684959 -0.123857 -0.737486 0.127837-2.472359 -0.721051 12.136937 -0.150196 -0.799599 0.125512-2.343150 -0.401865 11.980688 -0.165511 -0.783155 0.138286-2.190084 -0.558401 11.903053 -0.131574 -0.766280 0.150121-2.287472 -0.824556 12.161527 -0.079769 -0.752563 0.165042-2.613998 -1.278457 12.277471 -0.008946 -0.772459 0.176242-2.693635 -1.194614 11.775435 -0.031143 -0.797384 0.166551-2.773648 -1.267971 11.444713 -0.030584 -0.819220 0.155154-2.763332 -1.423401 11.468977 -0.011246 -0.795496 0.153332-2.758534 -1.635318 11.735834 0.020716 -0.785589 0.152598-2.853409 -2.035735 11.585718 0.073287 -0.801271 0.144510-2.723322 -1.940285 10.847474 0.066361 -0.816153 0.134485-2.512116 -1.784617 10.703493 0.054510 -0.778825 0.138926-2.537950 -1.844905 10.474386 0.066078 -0.781479 0.135196-2.698073 -1.829760 10.126656 0.081094 -0.817939 0.126917-2.625607 -2.122362 10.518340 0.137223 -0.750438 0.133059-2.726450 -2.595981 10.398765 0.200787 -0.789653 0.112410-3.293337 -2.611787 9.989453 0.210716 -0.861936 0.097281-3.276653 -2.530976 9.875422 0.201409 -0.839733 0.088590-3.129235 -2.418829 9.616185 0.173222 -0.849038 0.074969-3.186633 -2.687359 9.890611 0.207835 -0.803586 0.083042-3.100987 -3.009364 10.410542 0.248381 -0.775834 0.084849-3.419382 -3.181058 10.195767 0.261362 -0.847553 0.069432-3.401841 -2.760261 10.277840 0.215378 -0.831298 0.069001-3.308711 -2.594130 10.058397 0.187975 -0.851528 0.058300-3.448597 -2.622947 10.277847 0.196685 -0.849937 0.059954-3.513039 -2.970118 10.864189 0.245259 -0.839421 0.061003-3.561189 -3.080918 11.156490 0.248673 -0.860698 0.052934-3.604010 -2.754507 11.042649 0.188771 -0.883688 0.042048-3.445732 -2.462783 10.976586 0.128046 -0.878492 0.032296-3.167016 -2.528799 10.949394 0.107962 -0.862594 0.020353-3.169164 -2.935731 11.525503 0.148507 -0.823062 0.024240-3.322032 -3.380489 12.255466 0.200822 -0.820521 0.025938-3.380548 -3.394581 12.212574 0.194296 -0.860244 0.017492-3.327531 -3.049968 11.866807 0.137823 -0.888616 0.011022-3.152706 -2.813606 11.437744 0.094770 -0.902713 0.005341-3.290672 -2.909021 11.347153 0.107848 -0.915171 0.006325-3.260904 -3.174869 11.983803 0.157566 -0.880262 0.015085-3.333767 -3.490317 12.610394 0.218623 -0.862865 0.020138-3.421994 -3.334850 12.417427 0.208802 -0.878060 0.013803-3.372705 -2.980942 11.916843 0.167788 -0.915502 -0.002317-3.303411 -2.973432 11.832419 0.175163 -0.920366 -0.012395-3.529659 -2.988506 11.733105 0.188697 -0.946021 -0.021774-3.639411 -3.002220 11.611617 0.212036 -0.959488 -0.028067-3.483655 -2.943068 11.850334 0.246989 -0.938392 -0.020596-3.424494 -2.801306 11.794577 0.279229 -0.914183 -0.008297-3.373998 -2.642753 11.488115 0.325136 -0.890144 0.003166-3.353622 -2.580396 11.560611 0.381734 -0.901219 0.005649-3.575629 -2.392579 11.496425 0.432751 -0.918098 0.012703-3.325449 -2.261834 11.417258 0.488076 -0.860908 0.024484-3.302518 -2.182477 11.339406 0.549727 -0.835029 0.038492-3.310186 -2.149622 11.624015 0.644868 -0.800637 0.060461-3.554305 -2.024373 11.585427 0.742751 -0.818446 0.075928-3.532980 -1.641209 11.032042 0.815847 -0.808677 0.086987-3.617058 -1.143171 10.422733 0.877311 -0.794536 0.098065-3.643366 -0.882767 10.646667 0.994287 -0.718933 0.119252-3.857767 -0.939746 10.882210 1.141294 -0.673467 0.128780-3.995534 -0.861251 10.869629 1.270864 -0.615419 0.137682-4.178119 -0.380125 11.245580 1.345195 -0.578391 0.150245-4.319569 -0.226954 10.473584 1.421340 -0.629358 0.138666-4.854204 0.265395 9.774070 1.450397 -0.693111 0.141560-4.767919 0.447199 9.297289 1.502305 -0.688231 0.148425-4.640682 0.647338 9.543476 1.548920 -0.628191 0.172964-4.412710 0.151361 9.246181 1.657137 -0.614360 0.180782-4.550588 0.211865 9.297576 1.701791 -0.621429 0.201494-4.176325 0.475143 9.110825 1.684085 -0.663511 0.211094-4.285080 0.579810 8.489189 1.666679 -0.725400 0.209859-3.957308 0.886377 7.478180 1.613946 -0.779960 0.209938-3.938416 0.560683 7.445078 1.638262 -0.814540 0.218741-3.384089 0.536428 7.758853 1.627574 -0.767546 0.229479-3.633607 -0.198835 8.142157 1.722915 -0.826823 0.235579-4.262493 -0.583464 7.266124 1.736007 -1.058766 0.213783-3.862039 0.156688 6.600373 1.632268 -1.088521 0.214014-3.095101 0.116117 5.842283 1.584564 -1.062995 0.211580-3.047183 -0.423289 6.300591 1.635061 -1.075885 0.223187-3.117643 -1.189153 6.201393 1.683504 -1.159795 0.213237-2.953327 -1.053785 5.792963 1.612336 -1.224707 0.210500-2.810141 -0.719803 5.787745 1.512009 -1.254439 0.215426-2.204627 -1.307808 6.176748 1.528569 -1.237323 0.220904-2.605832 -1.673383 5.448445 1.488751 -1.417006 0.211314-2.412173 -1.941957 5.495092 1.439822 -1.437435 0.218412-2.493778 -2.559279 6.014623 1.451289 -1.474309 0.229142-1.979993 -3.028591 6.292541 1.412722 -1.504140 0.230238-1.940841 -3.148899 5.907849 1.329732 -1.531413 0.229204-1.827930 -3.090961 5.922111 1.256172 -1.559929 0.236133-1.586726 -3.139301 6.123051 1.188345 -1.587073 0.237836-1.845213 -3.769483 6.364014 1.194375 -1.651933 0.242822-1.532045 -4.086818 6.046708 1.180333 -1.641215 0.241664-1.340977 -3.819981 6.575842 1.103515 -1.632009 0.247938-1.301892 -4.380991 6.726374 1.146078 -1.636004 0.243782-1.087320 -4.124099 6.536630 1.071523 -1.650701 0.237505-1.452299 -4.247703 6.207787 1.038595 -1.704193 0.205940-2.352151 -4.230645 6.862653 1.029232 -1.778612 0.196675-1.541263 -4.422111 7.725083 1.016056 -1.622107 0.192733-2.003552 -4.790742 7.607153 1.034753 -1.694416 0.180718-2.730521 -4.877340 7.149311 0.992656 -1.776903 0.169568-1.914686 -4.453359 7.781838 0.905074 -1.618372 0.173795-2.831561 -4.920147 8.193370 0.948229 -1.667887 0.174968-2.226390 -5.217333 8.396510 0.933230 -1.583444 0.162963-3.663372 -5.113410 8.736084 0.926005 -1.684416 0.167424-3.603942 -5.084350 8.940902 0.903150 -1.659265 0.158192-2.110729 -4.922699 9.989132 0.872549 -1.354683 0.163832-3.372406 -5.047032 9.891019 0.885552 -1.495125 0.152615-3.456436 -4.783758 10.125514 0.846306 -1.474573 0.144794-3.164379 -4.443237 10.888502 0.805843 -1.366525 0.140601-3.310194 -4.363260 11.668133 0.812122 -1.286692 0.140276-3.509400 -4.386650 12.022671 0.819766 -1.257407 0.121414-4.614698 -4.378397 12.736141 0.850572 -1.325283 0.115012-4.540939 -3.953717 13.902893 0.843358 -1.238949 0.107466-4.129070 -3.835448 14.126554 0.847762 -1.112941 0.098386-4.682530 -3.657328 14.080923 0.850079 -1.143509 0.097747-5.813028 -3.392839 16.159085 0.906477 -1.162215 0.116801-5.311077 -3.491126 16.815584 0.934491 -1.027217 0.116674-5.185564 -3.455506 16.736067 0.933006 -1.000645 0.106656-5.720462 -3.117520 17.107268 0.909632 -0.988982 0.107045-5.755707 -3.110228 18.135884 0.930069 -0.880496 0.117131-5.875021 -3.212220 18.664766 0.948767 -0.882538 0.118179-6.658753 -3.242116 18.396272 0.946284 -0.913755 0.123649-6.632314 -3.758483 18.895146 0.992489 -0.904245 0.125257-6.176791 -3.557266 19.680784 0.963987 -0.781260 0.140226-6.330318 -3.726721 19.393837 0.948074 -0.783814 0.146861-6.525941 -3.802692 18.651803 0.913188 -0.858569 0.148719-7.263748 -3.690747 18.294440 0.875991 -0.952853 0.172373-6.295544 -3.826858 17.888849 0.849292 -0.802990 0.197284-5.630885 -3.602248 17.534839 0.807076 -0.705174 0.226928-6.618469 -4.487018 16.518673 0.888020 -0.891959 0.233391-7.151567 -4.180065 16.181569 0.864861 -0.963660 0.260607-5.829300 -4.270060 15.451261 0.838096 -0.771805 0.262754-5.073316 -4.045800 14.027317 0.790946 -0.711569 0.257738-5.269419 -4.165789 13.682153 0.826170 -0.725645 0.261537-6.498732 -4.909902 12.951421 0.944380 -0.902436 0.259123-6.083968 -4.760409 12.023602 0.934062 -0.833366 0.255164-5.377753 -4.338529 10.797097 0.890507 -0.746952 0.245894-5.264265 -4.642641 10.296833 0.954880 -0.758830 0.238490-6.254421 -4.881616 9.662590 1.025624 -0.855790 0.247498-5.380433 -5.247330 9.226614 1.084451 -0.747609 0.244941-5.133233 -4.990310 8.536651 1.055290 -0.771646 0.243501-5.454771 -4.895649 7.704037 1.038628 -0.871618 0.243992-5.423525 -4.451470 7.276739 0.981845 -0.929104 0.250084-4.686970 -4.547595 6.743897 0.961758 -0.856605 0.248847-4.535017 -4.967318 6.887745 1.002429 -0.832109 0.250091-4.286935 -5.302278 7.454236 1.023071 -0.824636 0.242257-4.914954 -5.480624 7.480537 1.038822 -0.957133 0.243766-4.850446 -5.784475 6.617279 1.016679 -1.041127 0.229493-4.184092 -5.232224 5.940638 0.893421 -1.037991 0.225772-4.638805 -5.044313 5.741337 0.866457 -1.132330 0.232507-4.835456 -5.604393 5.797931 0.936305 -1.190101 0.237671-4.884195 -5.870882 6.953892 1.021479 -1.115324 0.256902-4.571901 -6.186072 7.584028 1.108463 -1.035900 0.262287-4.073006 -5.768173 7.153167 1.070934 -1.050670 0.248677-4.234107 -4.999712 6.228407 0.993620 -1.144629 0.238640-4.207893 -4.450381 5.815527 0.946097 -1.158636 0.218963-3.842814 -4.654582 6.510218 1.000206 -1.053831 0.190004-3.857451 -5.109587 7.280892 1.090533 -1.002596 0.171651-3.993690 -5.243577 8.065760 1.146211 -0.968904 0.168932-4.185897 -5.254696 8.174439 1.172820 -1.039835 0.162801-4.226970 -4.911845 7.449017 1.118483 -1.099712 0.161977-4.457031 -4.445710 6.830399 1.058985 -1.170605 0.169081-4.634181 -4.537263 7.005205 1.075390 -1.188445 0.183541-4.918002 -4.865217 7.760993 1.147474 -1.162646 0.205384-4.437168 -5.104648 8.243413 1.195405 -1.070739 0.213418-4.047163 -5.006679 8.576550 1.209885 -0.998162 0.224225-4.149141 -4.623919 8.181163 1.179256 -1.033102 0.230067-4.253910 -4.249808 7.934005 1.152438 -1.087197 0.234471-4.238788 -4.103023 7.912824 1.152477 -1.081603 0.238536-4.063403 -4.354458 7.826073 1.184870 -1.031391 0.231037-4.122388 -4.437445 7.942943 1.215616 -1.012163 0.220474-4.462224 -4.394739 8.036957 1.226701 -1.046350 0.213656-4.868570 -4.297167 7.932474 1.236308 -1.095721 0.208097-4.558365 -4.369961 7.897996 1.250401 -1.015232 0.206577-4.371103 -4.262857 7.957002 1.250543 -0.973021 0.211136-4.796398 -4.456324 8.011820 1.290833 -1.025233 0.220093-5.102187 -4.380309 8.022443 1.291579 -1.055588 0.231937-4.382722 -4.306983 7.991047 1.268993 -0.950858 0.234885-4.252156 -4.312946 8.137378 1.261630 -0.927210 0.242937-4.339871 -4.386430 8.242138 1.246399 -0.970697 0.247364-4.708961 -4.389033 8.214928 1.221761 -1.045716 0.253940-4.470266 -4.512452 8.114085 1.177589 -1.045447 0.247235-4.415490 -4.537304 8.405288 1.138649 -1.050545 0.245249-4.556148 -4.617324 8.721017 1.106964 -1.092738 0.237920-4.594483 -4.673529 9.080382 1.067573 -1.123458 0.232396-4.521888 -4.815310 9.319438 0.996767 -1.148465 0.225309-4.304040 -4.890294 9.660111 0.926703 -1.148555 0.223083-4.245501 -5.031291 10.400616 0.875658 -1.185673 0.224038-4.320530 -5.101385 10.523015 0.827427 -1.237701 0.224070-4.178839 -5.091071 10.776421 0.762448 -1.241725 0.226933-3.933889 -5.191343 11.417661 0.730829 -1.208059 0.229057-3.950741 -5.347573 12.058466 0.719025 -1.207115 0.227350-4.177113 -5.330930 12.261541 0.683185 -1.244988 0.222992-4.030500 -5.113104 12.381621 0.629035 -1.229183 0.214544-3.874100 -4.935263 12.473305 0.592955 -1.196620 0.208629-3.749753 -4.795262 12.740000 0.581279 -1.152017 0.206199-3.878253 -4.901842 13.058216 0.613071 -1.132790 0.206921-3.937348 -4.949491 13.390885 0.644638 -1.115781 0.204941-3.927264 -4.913688 13.779132 0.665653 -1.094487 0.201342-4.182319 -4.872978 13.759279 0.686948 -1.108624 0.195721-4.224592 -4.657078 13.619511 0.696445 -1.111606 0.189523-4.357882 -4.583062 13.638006 0.747697 -1.125434 0.193337-4.497971 -4.355631 13.502296 0.790019 -1.133399 0.204289-4.467684 -4.095643 13.363513 0.839689 -1.114405 0.212794-4.392305 -3.964019 13.338213 0.906958 -1.065172 0.221201-4.483009 -3.693691 12.895515 0.952040 -1.064682 0.229239-4.410861 -3.498509 12.765620 1.012240 -1.015045 0.240739-4.542732 -3.341580 12.378909 1.078888 -1.007251 0.251419-4.652223 -3.153446 11.862689 1.166889 -0.946995 0.263209-4.783144 -3.140795 11.606050 1.229608 -0.933417 0.265611-4.845443 -3.151900 11.491074 1.320912 -0.883139 0.269347-5.067232 -2.974981 11.046831 1.398947 -0.875240 0.268851-5.159237 -2.844017 10.432570 1.444045 -0.843356 0.264919-4.908736 -2.683555 10.247616 1.513205 -0.788353 0.260781-4.846191 -2.445849 10.033031 1.539772 -0.742175 0.258686-4.769574 -2.084913 9.523221 1.550941 -0.725807 0.260043-4.880344 -2.047595 9.134102 1.593596 -0.723953 0.264990-4.890705 -1.960103 8.826736 1.615737 -0.723713 0.271339-4.810901 -1.968749 8.579055 1.640390 -0.700323 0.277076-4.796393 -1.886530 8.420919 1.639584 -0.713502 0.281256-5.075696 -1.854525 8.084870 1.623651 -0.770826 0.282187-5.070925 -1.944239 7.821084 1.599198 -0.815949 0.275996-4.912284 -2.121880 7.741683 1.590262 -0.807796 0.273391-4.867380 -2.137731 7.619425 1.552529 -0.831631 0.272132-4.757224 -2.398678 7.651234 1.539270 -0.861030 0.267800-4.487957 -2.663994 7.474030 1.513597 -0.850996 0.264745-4.493092 -2.559333 7.743799 1.462518 -0.860329 0.271329-4.185262 -2.841787 7.509324 1.421115 -0.869145 0.261947-4.235157 -2.868689 7.595782 1.344675 -0.887138 0.253297-4.427364 -2.988134 7.762292 1.311980 -0.910834 0.249518-4.269722 -3.304076 7.709329 1.284955 -0.894782 0.240652-4.166757 -3.215702 7.763226 1.222153 -0.893807 0.235822-4.335995 -3.093126 7.906537 1.159388 -0.885052 0.240282-4.059202 -3.379457 7.894241 1.136980 -0.817421 0.238861-3.919650 -3.503121 8.039254 1.082305 -0.756617 0.238676-4.247116 -3.522471 8.411392 1.031894 -0.729932 0.240655-4.257958 -3.721199 8.341226 0.987120 -0.679225 0.231584-4.247871 -3.766477 8.489723 0.920361 -0.630217 0.220212-4.627251 -3.615777 8.360361 0.826846 -0.647796 0.208315-4.814423 -3.793390 8.167235 0.751922 -0.598413 0.196464-4.914771 -3.733190 8.226168 0.643670 -0.540922 0.187421-4.749211 -3.855006 8.369739 0.589240 -0.465768 0.181203-4.640130 -4.154220 8.814981 0.524799 -0.346339 0.179168-5.066280 -4.128949 9.056422 0.447243 -0.333110 0.184712-5.088801 -4.461029 9.040533 0.366419 -0.275021 0.178553-4.716713 -4.310689 8.704489 0.078448 -0.109183 0.152974-5.219199 -4.574504 8.567839 0.022623 -0.120398 0.151576-5.430543 -4.911958 8.567983 -0.030170 -0.090980 0.144987-5.337999 -5.400180 9.062511 -0.100485 0.044157 0.139010-6.433878 -6.023943 9.690698 -0.155251 0.051390 0.144473-6.369863 -6.676908 10.654132 -0.204224 0.242384 0.142154-6.460404 -7.232550 10.815534 -0.313211 0.342609 0.129651-7.512566 -7.096673 9.901255 -0.517611 0.294443 0.121468-6.422996 -6.759604 10.135588 -0.719538 0.577976 0.095434-7.529212 -7.525632 11.045294 -0.843872 0.714629 0.061574-7.481734 -7.987690 11.799525 -0.902414 0.848004 0.040989-8.299751 -9.004728 12.256964 -0.949447 0.888537 0.018186-9.098429 -9.181993 11.910600 -1.099430 0.820708 -0.010497-9.353711 -9.192731 12.368279 -1.300850 0.934600 -0.040329-9.796753 -9.795495 13.016587 -1.367516 0.970391 -0.044387-10.817793 -10.726939 13.980689 -1.410819 0.929499 -0.030779-10.920567 -11.327324 14.685193 -1.507357 0.974905 -0.028550-10.207598 -11.097434 15.254088 -1.716439 1.087981 -0.038593-8.867536 -10.419870 15.683400 -1.949703 1.228130 -0.051264-8.345087 -10.853170 16.231611 -2.067827 1.292368 -0.048931-8.306744 -10.967373 16.446811 -2.190289 1.229480 -0.046571-8.741796 -11.224680 16.990384 -2.289172 1.102331 -0.039360-9.436027 -11.370192 17.659588 -2.334912 0.956957 -0.011745-9.306666 -12.029829 17.917197 -2.350641 0.813255 0.003310-10.280227 -12.387958 18.964165 -2.340084 0.592273 0.041989-9.174992 -12.615828 19.175446 -2.361113 0.516533 0.054084-7.595398 -11.744847 19.638841 -2.514332 0.496691 0.047351-5.885667 -11.420448 19.182793 -2.599735 0.387077 0.043889-4.504044 -10.695948 19.323769 -2.696682 0.228637 0.052970-4.549935 -10.852491 19.277733 -2.611750 -0.115315 0.083883-3.973720 -11.074254 19.231552 -2.491355 -0.406911 0.117133-3.709020 -11.282008 19.291111 -2.365183 -0.668103 0.150337-3.406992 -11.183979 18.473217 -2.291561 -0.923750 0.168325-1.437739 -10.102147 19.110788 -2.331663 -0.951915 0.168917-0.771148 -9.523498 18.018623 -2.281275 -1.221126 0.1745380.147471 -8.672717 17.136299 -2.280081 -1.376785 0.1808420.834636 -8.378082 16.694177 -2.174194 -1.571728 0.1944141.014795 -8.054812 16.860809 -2.042989 -1.711454 0.2170110.905833 -7.271731 16.265068 -1.962731 -1.957806 0.1995031.896842 -7.311319 15.327009 -1.806146 -1.989882 0.1877603.049655 -6.440131 15.093466 -1.730810 -1.949860 0.1728482.988287 -5.407352 14.439715 -1.652850 -2.076260 0.1538203.333896 -4.625073 13.366422 -1.532308 -2.135709 0.1249703.246550 -3.904650 12.529561 -1.447839 -2.214381 0.0976572.947032 -2.686083 11.537523 -1.377683 -2.231287 0.0724752.928364 -2.173291 11.773268 -1.220629 -2.160336 0.0675953.638100 -2.680974 10.864578 -1.002872 -2.069645 0.0432033.275439 -1.755969 9.693394 -0.948953 -2.104817 0.0154342.566712 -0.692138 9.712757 -0.871252 -2.024695 0.0209122.663252 -0.690390 9.295824 -0.705575 -1.967154 0.0076382.517176 0.188464 8.893902 -0.649269 -1.929216 -0.0099270.216897 0.580219 7.343054 -0.505895 -2.160809 -0.0151461.239023 0.621911 7.486570 -0.363951 -1.873510 -0.0045491.978401 0.792485 6.946076 -0.255651 -1.734485 -0.0214080.726734 1.628412 6.322892 -0.218644 -1.730521 -0.0135651.376505 2.290048 6.128231 -0.153430 -1.604320 -0.0380990.500648 2.569688 5.138860 -0.139550 -1.661858 -0.0499500.704787 3.638218 4.996600 -0.171888 -1.495184 -0.0516020.960242 3.466777 5.359505 -0.100193 -1.414704 -0.061786-0.270364 2.537800 4.757701 0.094731 -1.485858 -0.0598650.327798 3.122973 5.100745 0.087713 -1.276715 -0.063361-1.031935 3.169688 4.651930 0.165669 -1.469874 -0.080214-0.963916 3.378167 5.190858 0.196823 -1.281069 -0.062535-1.418733 3.641352 5.264581 0.223783 -1.347818 -0.073844-2.032918 3.645348 5.359954 0.273615 -1.336265 -0.061853-1.008949 4.139477 6.152415 0.241255 -1.143057 -0.062466-2.014117 4.332001 5.009853 0.208109 -1.373959 -0.103838-1.741959 4.278561 5.622513 0.207173 -1.211881 -0.094630-0.463495 4.054088 5.235516 0.180028 -1.077276 -0.127658-1.970852 3.974765 5.569664 0.181552 -1.179549 -0.135054-2.709766 3.114130 6.601519 0.294905 -1.208717 -0.132911-2.691195 3.146137 6.249125 0.218040 -1.243052 -0.176040-3.647486 2.718427 6.771980 0.284086 -1.221511 -0.152691-3.810066 2.664846 6.556559 0.243537 -1.333156 -0.182330-4.323290 2.724582 6.658909 0.223692 -1.426534 -0.173853-2.978114 2.862091 8.041725 0.167329 -1.098699 -0.139882-2.588598 2.921866 8.043376 0.111073 -1.115942 -0.153587-3.153646 2.746202 7.517598 0.075157 -1.213328 -0.163121-2.423821 3.246873 8.871650 -0.047342 -1.084518 -0.164199-2.733673 2.919792 8.400217 -0.052834 -1.220295 -0.191699-2.665340 2.902624 8.621992 -0.130730 -1.087570 -0.182404-2.723768 2.135805 9.218722 -0.083300 -1.152817 -0.202601-3.857818 1.402078 9.098662 -0.055962 -1.295862 -0.216913-3.946394 1.314893 10.119070 -0.086004 -1.161414 -0.200020-3.156520 1.032876 10.696546 -0.108723 -1.125677 -0.216433-3.697142 0.850657 10.148962 -0.135741 -1.223152 -0.216670-3.184108 1.399170 9.915571 -0.259345 -1.147793 -0.204697-2.813617 1.353968 10.994385 -0.281668 -1.061991 -0.185116-2.702965 0.818502 10.871070 -0.267614 -1.056929 -0.185213-3.631172 0.962747 10.782578 -0.307055 -1.186243 -0.192081-3.680947 0.996258 11.420548 -0.323754 -1.142625 -0.183079-2.636993 0.694202 11.514179 -0.349154 -1.041515 -0.195407-3.319595 0.677368 11.279625 -0.384181 -1.148001 -0.213267-3.930477 0.518449 11.110313 -0.403091 -1.257589 -0.232444-3.546417 0.338558 11.988772 -0.436197 -1.157884 -0.227866-2.957994 -0.013806 11.694465 -0.465663 -1.128422 -0.247908-3.321734 -0.069869 11.115863 -0.519771 -1.222518 -0.270540-3.316959 -0.037169 10.977937 -0.581847 -1.265941 -0.285954-2.796989 -0.278026 11.617656 -0.607512 -1.182778 -0.258124-3.171416 -0.664771 11.126953 -0.612093 -1.281278 -0.246012-3.073446 -0.763496 10.610357 -0.664030 -1.346170 -0.243714-2.768700 -0.893400 10.835022 -0.737030 -1.300808 -0.218570-2.482708 -0.746760 10.809343 -0.788439 -1.300586 -0.220416-2.799946 -1.329641 10.260552 -0.788013 -1.391566 -0.230247-3.036057 -1.451438 9.627178 -0.840664 -1.500483 -0.253166-2.612263 -1.415696 9.855581 -0.890863 -1.425494 -0.247558-1.773096 -1.487353 9.975375 -0.946632 -1.330767 -0.252809-1.960124 -1.928229 9.541370 -0.936882 -1.433293 -0.273621-2.313432 -2.184260 8.955440 -0.951035 -1.547669 -0.293571-1.888042 -2.089466 9.363217 -1.002246 -1.453209 -0.281272-1.306341 -2.317442 9.627611 -1.023015 -1.386050 -0.275673-1.623346 -2.684360 8.411419 -1.043198 -1.578669 -0.314651-1.905204 -2.481068 8.276598 -1.099150 -1.602143 -0.309932-1.601497 -2.741908 8.548766 -1.115064 -1.575703 -0.300164-1.045080 -3.338285 7.986473 -1.103639 -1.549454 -0.302299-1.564430 -3.024848 7.905013 -1.177602 -1.659704 -0.309402-1.383392 -3.267438 7.902324 -1.211738 -1.646354 -0.303924-0.951416 -3.791030 7.964462 -1.203998 -1.642815 -0.302751-1.217393 -3.728404 7.869479 -1.263903 -1.724405 -0.310789-0.927663 -3.778454 7.813320 -1.326762 -1.702706 -0.307161-0.635122 -4.248733 8.178023 -1.333210 -1.713850 -0.310127-0.801996 -4.358497 7.782175 -1.382408 -1.826594 -0.329569-1.144786 -4.566739 7.890731 -1.405541 -1.836272 -0.316450-0.575068 -4.786716 8.284587 -1.421907 -1.793343 -0.313808-1.030936 -4.944841 7.969300 -1.437313 -1.924399 -0.335198-1.349038 -4.796522 8.125107 -1.470961 -1.907846 -0.321680-1.197183 -5.195542 8.178908 -1.433932 -1.963123 -0.327767-1.054013 -5.726555 7.500634 -1.397363 -1.960418 -0.327571-0.823213 -5.558115 8.403879 -1.415201 -1.824666 -0.286627-0.633969 -5.470389 7.762250 -1.444612 -1.930562 -0.323856-1.205275 -5.399847 8.008741 -1.443499 -1.926667 -0.301733-0.775015 -5.128822 7.635892 -1.495425 -1.954008 -0.318371-0.712088 -5.086025 8.058924 -1.468823 -1.868731 -0.292356-0.426682 -5.281589 7.842859 -1.420653 -1.842604 -0.297298-1.387903 -5.340315 8.637967 -1.344140 -1.903270 -0.291770-1.468765 -6.086288 7.492557 -1.185668 -1.930583 -0.315145-1.452828 -5.489417 8.426449 -1.169179 -1.785394 -0.283350-2.206530 -4.988451 7.961119 -1.094877 -1.867032 -0.298054-2.920509 -4.681652 8.121677 -1.045844 -1.960213 -0.310234-2.984716 -4.164302 7.830736 -0.969354 -1.912062 -0.303649-2.783333 -3.419643 8.158458 -0.961266 -1.851833 -0.305462-1.987670 -3.714782 8.098133 -0.788531 -1.635831 -0.278085-2.296414 -3.163044 7.789349 -0.743632 -1.750570 -0.311821-2.732276 -2.968987 8.509786 -0.634590 -1.647840 -0.286482-2.638498 -1.920379 8.632535 -0.614780 -1.633613 -0.301536-2.875842 -2.043047 8.708663 -0.474569 -1.544849 -0.284791-3.531443 -1.088571 8.852861 -0.458619 -1.634342 -0.302940-3.745589 -1.079208 9.098264 -0.329828 -1.534631 -0.280478-4.239950 -1.315789 9.103918 -0.130791 -1.559990 -0.291712-3.913680 -1.317643 9.315004 -0.048136 -1.465693 -0.284057-4.141077 -0.336913 9.762648 -0.024721 -1.444330 -0.283264-4.487844 0.371686 9.872169 0.045304 -1.438233 -0.286782-4.056172 1.058330 9.956156 0.093538 -1.385149 -0.291983-4.781616 1.407406 10.185228 0.228013 -1.392527 -0.289182-4.376724 1.981951 10.635276 0.310329 -1.312605 -0.281248-4.804629 2.124946 11.161633 0.458835 -1.264534 -0.263915-4.471526 2.717345 11.425479 0.528187 -1.203883 -0.258658-5.343167 2.623547 10.800037 0.684272 -1.302681 -0.276533-5.435422 3.246130 11.048012 0.729910 -1.260278 -0.261540-6.025150 3.349218 10.787785 0.839739 -1.324961 -0.283683-5.765777 3.787395 11.255810 0.926517 -1.171055 -0.259099-6.437231 3.864073 10.868319 1.053683 -1.237304 -0.284159-7.412229 4.442969 11.229472 1.150490 -1.318079 -0.270012-6.578155 4.708515 11.379920 1.300042 -1.149320 -0.219861-6.081238 5.405982 10.832679 1.335358 -1.134098 -0.204995-6.380685 6.043735 10.557967 1.421269 -1.108682 -0.165626-6.458942 5.886848 10.787440 1.550508 -1.122654 -0.146323-5.903063 6.178331 10.480166 1.585317 -1.064839 -0.126387-5.942665 6.128100 9.819821 1.628069 -1.087947 -0.121475-6.052799 5.975414 9.086575 1.632161 -1.151765 -0.129617-5.884866 5.615024 9.123970 1.656166 -1.169199 -0.125743-4.738382 4.781854 8.487358 1.695780 -1.050844 -0.110730-6.097035 4.538153 7.487515 1.715010 -1.296605 -0.137417-6.375664 3.995672 6.939436 1.744751 -1.453906 -0.153010-4.844931 3.944424 6.813252 1.745537 -1.247091 -0.095653-4.893588 3.093371 5.973179 1.823075 -1.302274 -0.086715-5.368116 2.550064 5.752310 1.898662 -1.395685 -0.075153-4.665948 2.760273 5.450995 1.841445 -1.379281 -0.055486-4.144069 3.017783 3.703406 1.726447 -1.387661 -0.039867-3.727774 2.921059 3.470857 1.701836 -1.343716 -0.028325-3.771307 2.731781 3.332445 1.693041 -1.368841 -0.028165-4.698195 2.336107 2.981680 1.675379 -1.499902 -0.039578-4.005291 2.109282 2.596988 1.623883 -1.400353 -0.022226-3.809852 1.802416 2.439672 1.584037 -1.388261 -0.020359-4.331717 1.047561 2.130100 1.578074 -1.474204 -0.031504-4.293380 0.807246 1.490449 1.518585 -1.476802 -0.034664-3.580278 0.169922 0.670571 1.475949 -1.417709 -0.034432-2.984007 0.533120 0.527096 1.350878 -1.347971 -0.016544-3.479469 -0.085975 0.731072 1.342899 -1.403718 -0.007084-4.397915 -0.577132 0.510038 1.345192 -1.560311 -0.014419-3.526924 -0.989537 0.609487 1.302548 -1.421545 0.013439-3.860698 -1.006332 0.079551 1.247125 -1.505002 0.007616-3.173738 -0.850246 -0.190232 1.130095 -1.420671 0.024077-3.823967 -1.091716 -0.421136 1.096682 -1.537160 0.013618-3.519158 -1.769002 -0.618683 1.060457 -1.496556 0.021457-3.756512 -2.226895 -0.854328 1.083424 -1.504972 0.021807-2.860203 -2.236440 -1.183963 0.989178 -1.414103 0.026988-3.369452 -2.249810 -0.740441 0.936924 -1.470899 0.030511-3.707380 -2.715696 -1.426861 0.924716 -1.536329 0.013972-3.051008 -2.757952 -1.100126 0.860042 -1.463386 0.025336-3.086178 -3.141854 -0.917495 0.862389 -1.464424 0.026831-3.305695 -3.311923 -1.095341 0.820917 -1.511140 0.023840-3.435025 -3.433855 -1.144261 0.776856 -1.544936 0.021856-2.597239 -3.605343 -0.808569 0.745431 -1.443864 0.034712-2.865486 -3.730778 -1.397079 0.689082 -1.502360 0.025882-2.819329 -3.943179 -1.604364 0.668742 -1.489031 0.030902-2.452231 -4.601019 -1.361420 0.693780 -1.458176 0.032037-2.439970 -4.611750 -1.498417 0.659070 -1.431090 0.042831-3.178481 -4.459641 -1.384979 0.606261 -1.520870 0.044680-3.250900 -4.666827 -1.483967 0.623019 -1.546841 0.043149-3.352717 -4.927484 -1.566008 0.607164 -1.557392 0.040564-2.964516 -4.536697 -1.467177 0.553075 -1.471260 0.061010-3.575859 -5.069839 -1.693279 0.587653 -1.529418 0.055806-3.293330 -5.041195 -1.380654 0.582587 -1.491205 0.062828-3.967791 -5.216457 -1.548056 0.573350 -1.565205 0.052532-3.756245 -5.091349 -1.944089 0.550226 -1.507112 0.048731-3.437863 -5.070359 -2.054576 0.505833 -1.468565 0.027141-3.987032 -5.140333 -1.865376 0.514221 -1.492303 0.008420-3.814528 -5.507411 -1.684721 0.521677 -1.444424 -0.007270-4.184476 -5.538552 -1.815627 0.517345 -1.452131 -0.019088-3.855757 -5.553415 -1.817672 0.480813 -1.404427 -0.028268-4.322707 -5.495822 -1.905334 0.476481 -1.443709 -0.041751-3.718234 -5.537670 -2.077411 0.450571 -1.342874 -0.045863-3.851623 -5.569741 -2.082179 0.440384 -1.333051 -0.058795-4.606104 -5.513100 -1.929970 0.433061 -1.392513 -0.078158-4.211458 -5.753090 -1.803424 0.430600 -1.337204 -0.097001-4.505892 -5.704529 -1.979324 0.403589 -1.360422 -0.121734-4.212487 -5.427282 -2.059460 0.338279 -1.315389 -0.133858-4.713639 -5.498273 -2.178714 0.329436 -1.383989 -0.156089-5.530329 -5.632964 -2.103317 0.328831 -1.495517 -0.176933-4.670552 -5.497179 -1.905766 0.285843 -1.356406 -0.166633-4.967763 -5.491273 -1.989487 0.276808 -1.370391 -0.170965-5.752050 -5.673654 -1.813804 0.294084 -1.506067 -0.192236-5.074110 -5.464639 -1.615836 0.257855 -1.397450 -0.184680-5.291833 -5.569785 -1.724656 0.264576 -1.416526 -0.191514-5.619071 -5.635736 -1.746785 0.272651 -1.476853 -0.207950-5.802891 -5.712224 -1.648570 0.286496 -1.498269 -0.220192-4.690940 -5.424591 -1.579525 0.236027 -1.352738 -0.224602-4.711573 -5.432381 -1.424194 0.235095 -1.355229 -0.225788-5.168909 -5.525447 -1.398904 0.247570 -1.442793 -0.237726-5.918750 -5.661546 -1.240277 0.262824 -1.565167 -0.235159-5.659313 -5.783246 -0.933079 0.273071 -1.521963 -0.216898-4.955879 -5.761290 -1.076450 0.235616 -1.430008 -0.192430-4.621381 -5.455683 -1.136773 0.164068 -1.428712 -0.185372-4.989135 -5.504816 -0.973046 0.146345 -1.516956 -0.189497-4.824174 -5.417660 -0.953748 0.105000 -1.503457 -0.178633-4.230586 -5.327598 -0.850890 0.057005 -1.424183 -0.159764-4.075532 -5.395656 -0.636400 0.034437 -1.404595 -0.143718-4.030749 -5.492142 -0.447572 0.017641 -1.419353 -0.135199-4.362287 -5.452708 -0.428586 -0.010314 -1.468964 -0.128288-3.909838 -5.392962 -0.616809 -0.038937 -1.423386 -0.119619-3.623394 -5.225020 -0.635759 -0.057545 -1.394744 -0.112780-3.715018 -5.238440 -0.548815 -0.035298 -1.382808 -0.103917-4.200177 -5.414606 -0.498779 0.024728 -1.436925 -0.103518-4.229242 -5.472681 -0.378165 0.070518 -1.402892 -0.095198-3.719679 -5.076715 -0.380891 0.064985 -1.325623 -0.086714-2.884303 -4.613170 -0.644387 0.038122 -1.223405 -0.077828-2.932101 -4.415104 -0.971508 0.050929 -1.243848 -0.077302-2.971406 -4.387228 -0.844251 0.100266 -1.258262 -0.067785-2.768220 -4.310821 -0.720483 0.131366 -1.216809 -0.047486-2.392937 -4.120772 -0.737455 0.145058 -1.166529 -0.022257-2.268541 -4.065649 -0.857702 0.159240 -1.178657 -0.012043-2.579264 -3.996970 -1.037436 0.166528 -1.254548 -0.009045-2.193488 -3.735284 -1.151665 0.136713 -1.219553 0.004472-1.328735 -3.368491 -1.241094 0.093382 -1.110232 0.025646-1.321696 -3.289739 -1.273953 0.094939 -1.118867 0.032907-1.647099 -3.377428 -1.137979 0.124659 -1.174553 0.032895-1.573638 -3.429618 -1.065093 0.144946 -1.143260 0.041465-1.273187 -3.297613 -1.143237 0.141359 -1.088133 0.051501-1.442057 -3.192845 -1.224423 0.145702 -1.105123 0.053149-1.195250 -3.084647 -1.324825 0.139439 -1.077280 0.057436-1.596101 -3.050723 -1.596327 0.150049 -1.122643 0.058303-2.186092 -3.132836 -1.693615 0.180659 -1.180165 0.061709-1.974071 -3.246594 -1.269152 0.215713 -1.143571 0.074268-1.641773 -3.214676 -1.204969 0.227329 -1.087463 0.088854-1.712194 -3.022266 -1.533837 0.220580 -1.097384 0.096996-0.809707 -2.725563 -1.655542 0.192048 -1.006504 0.110957-1.050160 -2.708420 -1.705241 0.205277 -1.054834 0.113147-1.236572 -2.827976 -1.576299 0.232754 -1.082155 0.120298-0.660853 -2.822334 -1.302078 0.231530 -1.003010 0.136008-0.656431 -2.814988 -1.323938 0.225160 -1.034608 0.135927-0.429259 -2.690153 -1.444871 0.199587 -1.036521 0.138498-0.718485 -2.658717 -1.563285 0.192093 -1.092746 0.138033-0.547671 -2.609984 -1.447616 0.175329 -1.098986 0.141973-0.459815 -2.663434 -1.331462 0.169785 -1.098388 0.1477700.006896 -2.591457 -1.216490 0.139161 -1.060755 0.1538330.145346 -2.559228 -1.275303 0.120578 -1.076394 0.1502340.177759 -2.549586 -1.291441 0.103435 -1.106602 0.1458320.232940 -2.579994 -1.198099 0.097510 -1.133892 0.1420620.016902 -2.753083 -1.116113 0.109652 -1.173074 0.1402200.306860 -2.787190 -1.056156 0.104128 -1.159754 0.1414660.254210 -2.805671 -1.073852 0.098066 -1.183127 0.141199-0.219614 -3.013405 -1.063357 0.118094 -1.272069 0.135136-0.455841 -3.087490 -1.002876 0.127951 -1.309973 0.1345650.296713 -2.979718 -0.873878 0.104445 -1.218491 0.1453480.553956 -2.881861 -0.906271 0.087996 -1.197482 0.148616-0.145932 -3.123984 -0.849125 0.121589 -1.311800 0.1382110.820317 -2.934043 -0.788349 0.092578 -1.194769 0.1483111.030009 -2.720572 -0.736188 0.068793 -1.157157 0.1575840.224463 -3.015167 -0.755348 0.117738 -1.291672 0.1449910.799928 -2.811040 -0.738426 0.093137 -1.224746 0.1501000.728182 -2.801285 -0.814402 0.090138 -1.235726 0.1509460.137135 -2.893976 -1.016348 0.108831 -1.315322 0.1461721.102017 -2.733947 -0.780719 0.072322 -1.195126 0.1575960.525276 -2.847794 -0.963811 0.073388 -1.263634 0.1531040.191885 -2.956339 -0.992750 0.072483 -1.323443 0.1471430.552271 -3.135688 -0.838372 0.066439 -1.286179 0.146379-0.054082 -3.264858 -1.040791 0.056253 -1.375498 0.1346690.556102 -3.312604 -0.902808 0.030550 -1.301234 0.1371620.227537 -3.493468 -0.879006 0.035923 -1.351123 0.1288770.156514 -3.485551 -1.028928 0.012461 -1.385749 0.1206720.037217 -3.534949 -1.045340 0.007943 -1.389774 0.1205980.543765 -3.408930 -1.055829 -0.027748 -1.336469 0.1221560.745717 -3.301519 -1.170957 -0.046899 -1.336284 0.1154710.706105 -3.230316 -1.206788 -0.051951 -1.344303 0.1099081.131969 -3.124070 -1.091274 -0.053356 -1.326199 0.1052401.929878 -2.851271 -1.125647 -0.065590 -1.213580 0.1162101.420538 -2.769038 -1.212954 -0.026511 -1.291071 0.1116760.948770 -2.862182 -1.461497 0.012278 -1.384134 0.0978380.736257 -2.721227 -1.714581 -0.001250 -1.394970 0.0931420.735078 -2.694374 -1.744212 -0.010850 -1.395248 0.0878890.395964 -2.886374 -1.711039 0.009183 -1.423721 0.078770-0.425007 -3.294536 -1.751548 0.073638 -1.529227 0.062354-0.292934 -3.241284 -1.627668 0.096665 -1.505864 0.0603640.016839 -3.044184 -1.705569 0.131659 -1.440780 0.0683650.799384 -2.419983 -1.798501 0.130927 -1.321855 0.0840971.185511 -2.239249 -1.825892 0.172265 -1.253276 0.0966311.075095 -1.901669 -2.371641 0.170857 -1.278824 0.0941980.683301 -1.749762 -2.426894 0.178017 -1.290904 0.097781-0.219457 -1.878360 -2.520748 0.203152 -1.380631 0.083897-1.258850 -2.194546 -2.361569 0.258533 -1.508475 0.064928-1.540548 -2.384979 -2.290874 0.268009 -1.511179 0.064718-0.776632 -2.348132 -1.932988 0.236455 -1.366839 0.0845300.441970 -2.198338 -1.247055 0.173768 -1.169894 0.1099170.311432 -2.211734 -1.344815 0.165965 -1.211155 0.102830-0.629246 -2.361197 -1.598636 0.188740 -1.388042 0.080133-0.876945 -2.230616 -1.776105 0.176496 -1.467062 0.061372-1.296211 -2.227266 -1.582695 0.193674 -1.509408 0.0505020.016764 -1.614381 -1.348458 0.137194 -1.351566 0.0556651.198893 -1.428787 -0.910389 0.119558 -1.177437 0.0708301.445696 -1.200917 -1.092346 0.122395 -1.170854 0.0634710.915758 -1.104042 -1.320281 0.131665 -1.277720 0.050660-0.644237 -1.520008 -1.249601 0.221598 -1.477954 0.036725-1.818176 -2.106993 -1.051344 0.313968 -1.630978 0.025878-1.838992 -2.011270 -0.705676 0.300511 -1.596352 0.036273-0.432697 -1.568470 -0.395293 0.223561 -1.406123 0.0551111.042774 -0.728550 -0.710716 0.087796 -1.228761 0.0706951.742019 -0.242351 -1.098103 0.018248 -1.161781 0.0788460.848114 -0.398421 -1.163050 0.038025 -1.294287 0.067936-0.170041 -0.647226 -0.941695 0.095195 -1.451182 0.057917-0.958847 -1.348674 -0.149626 0.203920 -1.554344 0.061807-0.294199 -1.179786 0.219761 0.178919 -1.483284 0.0739430.920237 -0.645378 0.358378 0.091545 -1.379820 0.0851281.932704 0.054060 0.321066 -0.002322 -1.311222 0.0897381.849809 0.631462 -0.088311 -0.097035 -1.411812 0.0808071.866363 0.477385 -0.085445 -0.094568 -1.461309 0.0831340.915592 0.299672 0.783984 -0.064964 -1.569461 0.0981011.101612 -0.181782 0.823090 -0.042148 -1.606045 0.0981140.587837 -0.030061 1.009349 -0.062610 -1.691969 0.1064241.282595 0.476060 0.364308 -0.169523 -1.697965 0.1053972.054503 0.992228 0.397425 -0.240984 -1.601130 0.1309572.615524 1.253476 0.721858 -0.294154 -1.556757 0.1475172.729823 1.197997 1.271767 -0.284855 -1.551592 0.1595532.105643 0.983467 1.199004 -0.250773 -1.629385 0.1492812.246452 0.953278 1.382026 -0.236125 -1.630151 0.1228122.090060 1.284037 1.591932 -0.262424 -1.674038 0.0948611.940985 1.621916 1.592097 -0.275414 -1.684626 0.0766172.040090 1.602019 1.368571 -0.253176 -1.657828 0.0620521.229459 1.281760 1.500426 -0.138396 -1.786692 0.0387811.813558 1.781402 2.607043 -0.146585 -1.721333 0.0400831.921192 1.611938 3.094786 -0.073097 -1.716803 0.0195462.409488 1.688173 2.909742 -0.055581 -1.666980 -0.0063552.872347 2.154615 3.468061 -0.092837 -1.608351 -0.0264702.931814 2.422585 3.557406 -0.093275 -1.603956 -0.0578822.194929 3.156817 3.172912 -0.151583 -1.679045 -0.0906902.317164 3.097320 2.652625 -0.121361 -1.637633 -0.1123622.498589 3.525898 2.147908 -0.152457 -1.568209 -0.1233061.649417 3.352087 2.194553 -0.081295 -1.647062 -0.1416471.412839 3.271348 1.940429 -0.030020 -1.612169 -0.1496020.859742 3.433299 1.398331 0.004731 -1.590993 -0.1570840.442234 3.387555 1.407864 0.047755 -1.627313 -0.1668640.739720 2.949755 0.946926 0.128970 -1.568395 -0.1775580.548097 3.201113 0.671276 0.123786 -1.526101 -0.1647830.488534 3.279879 0.813206 0.134358 -1.445027 -0.150616-0.172142 2.761090 1.113246 0.213795 -1.451396 -0.154329-0.509708 2.869629 1.033880 0.216648 -1.465798 -0.162618-1.135045 2.798711 0.087033 0.229809 -1.492760 -0.177677-1.644918 2.984669 -0.483915 0.211080 -1.484867 -0.181586-1.391278 2.943490 0.246781 0.243925 -1.413267 -0.185528-2.182060 2.326506 0.331711 0.357544 -1.431953 -0.198193-2.890824 2.287786 -0.478427 0.378138 -1.438523 -0.205326-2.498651 2.239041 -0.024086 0.423180 -1.346339 -0.204755-2.939585 1.866995 -0.263608 0.484150 -1.356301 -0.219565-2.744575 2.093787 -0.419490 0.477227 -1.260917 -0.215160-2.154101 2.265645 -0.241254 0.450134 -1.113994 -0.202398-3.206639 1.718359 -0.244499 0.528710 -1.229802 -0.222463-4.119440 2.110932 -0.387877 0.471617 -1.303175 -0.226706-3.713485 1.866376 -0.800365 0.484818 -1.175377 -0.220891-3.683879 2.102062 -1.258260 0.425923 -1.159266 -0.227429-4.427502 1.795970 -0.933729 0.467775 -1.182186 -0.224944-4.704266 1.866519 -0.508830 0.458760 -1.148429 -0.213302-4.404253 1.271159 -0.372738 0.506118 -1.057548 -0.211616-4.477274 1.589169 -0.480048 0.469859 -1.054240 -0.215420-4.316565 1.646720 -1.043657 0.442361 -1.053171 -0.229610-5.136340 1.967465 -1.243990 0.417212 -1.155308 -0.241116-4.579877 1.664689 -1.196760 0.446886 -1.069116 -0.242541-4.587771 1.361209 -0.941043 0.489652 -1.010023 -0.240295-4.921895 0.857241 -0.155611 0.554538 -1.023706 -0.244888-5.459488 0.616978 -0.301855 0.585314 -1.096060 -0.264122-5.776962 0.237975 -0.680824 0.597885 -1.194112 -0.284060-4.741162 0.741801 -1.307499 0.491614 -1.088961 -0.278366-5.285125 0.376293 -1.373804 0.507419 -1.167806 -0.286181-5.253049 0.340072 -1.680822 0.495503 -1.179825 -0.291446-5.048535 -0.019017 -1.231689 0.513437 -1.138630 -0.278821-4.856825 0.002175 -1.265576 0.511045 -1.116802 -0.276715-4.832694 -0.387224 -1.313593 0.542521 -1.138075 -0.286982-4.072682 -0.106452 -1.324600 0.504256 -1.075060 -0.291239-3.759733 -0.347237 -1.085959 0.525043 -1.025952 -0.293834-4.415961 -0.491483 -1.543523 0.543130 -1.127541 -0.315977-4.584303 -0.976827 -1.411236 0.597379 -1.166785 -0.331915-4.346834 -1.166334 -1.684858 0.602587 -1.162615 -0.343979-5.067226 -1.579356 -1.557898 0.646797 -1.236215 -0.348695-5.312229 -1.787928 -1.405982 0.677771 -1.282435 -0.335337-5.505164 -2.632137 -1.651549 0.740710 -1.302867 -0.329713-4.889796 -2.146581 -1.400939 0.677805 -1.228858 -0.295055-5.408667 -2.344705 -1.500165 0.681054 -1.271600 -0.278236-5.079177 -2.721265 -1.511082 0.698065 -1.275142 -0.265691-4.714619 -2.695216 -1.498831 0.662308 -1.227464 -0.247883-5.191629 -2.572853 -1.666964 0.607278 -1.277545 -0.232627-4.621350 -2.987401 -1.573829 0.602222 -1.203886 -0.222474-4.626615 -2.743369 -1.611460 0.520810 -1.215424 -0.212742-4.826411 -2.857734 -1.396531 0.485803 -1.241400 -0.201681-4.708715 -3.327423 -1.572082 0.490706 -1.236902 -0.199020-4.559047 -3.714081 -1.526593 0.507598 -1.222151 -0.202718-4.798298 -3.742011 -1.529175 0.491159 -1.242593 -0.201059-5.780615 -4.020354 -1.424318 0.526637 -1.369633 -0.210774-5.721362 -4.088703 -1.268074 0.531721 -1.377549 -0.210044-4.817797 -4.010180 -1.006654 0.507686 -1.258244 -0.192222-5.141832 -4.052651 -1.352116 0.504692 -1.276815 -0.179939-5.079731 -4.047799 -1.229619 0.487811 -1.282961 -0.167432-5.084251 -4.145201 -1.299760 0.502298 -1.299357 -0.160172-4.799325 -4.094825 -1.660919 0.474598 -1.234472 -0.142540-4.269187 -3.599960 -1.870084 0.419307 -1.169304 -0.130548-4.071931 -3.798845 -1.601634 0.451766 -1.129550 -0.131634-4.058255 -4.041672 -1.337146 0.500014 -1.156604 -0.147653-4.606938 -4.189099 -1.462587 0.555187 -1.220609 -0.160992-4.279679 -4.515282 -1.925816 0.614278 -1.229770 -0.186119-4.586534 -4.251896 -2.067234 0.625191 -1.283806 -0.196403-4.736617 -3.727330 -2.112119 0.590470 -1.324564 -0.204192-4.764905 -4.302650 -1.930958 0.695654 -1.310958 -0.215606-4.977451 -4.229196 -1.827236 0.699270 -1.348858 -0.226837-5.153421 -4.200974 -1.557190 0.700930 -1.362235 -0.235657-4.716024 -4.077022 -1.494097 0.681989 -1.304678 -0.239421-4.317302 -3.943534 -1.958551 0.633234 -1.284943 -0.246992-4.223864 -3.433748 -2.322926 0.555389 -1.290030 -0.244554-4.413091 -3.471339 -2.677233 0.527980 -1.305287 -0.245328-4.578060 -3.922807 -2.663727 0.575488 -1.344109 -0.245883-5.157095 -4.699914 -1.998797 0.673938 -1.382330 -0.241336-4.881788 -5.092276 -1.146826 0.709734 -1.359045 -0.235968-5.587016 -4.764547 -1.765606 0.680022 -1.503865 -0.256451-5.426365 -4.288475 -2.673201 0.603920 -1.530720 -0.270929-4.356939 -3.683572 -2.438415 0.532923 -1.436460 -0.265801-3.969173 -3.712839 -2.070624 0.537754 -1.313976 -0.248519-3.402156 -4.363765 -1.110479 0.607543 -1.200931 -0.237716-3.968952 -4.224264 -1.233503 0.588481 -1.325652 -0.253735-4.400614 -3.724145 -2.138145 0.517278 -1.428391 -0.265511-4.713207 -3.596354 -2.722216 0.492486 -1.467880 -0.267535-4.601461 -3.912128 -2.534828 0.529735 -1.405136 -0.252897-4.760928 -4.813079 -1.899817 0.639030 -1.402269 -0.254398-5.795967 -5.118829 -1.937263 0.682341 -1.543288 -0.264162-5.881116 -4.540678 -1.960565 0.622444 -1.558252 -0.256346-4.653795 -4.095661 -2.242857 0.545949 -1.414195 -0.248341-4.355964 -3.731975 -2.490676 0.496063 -1.422938 -0.246076-4.190467 -3.743324 -2.653819 0.504800 -1.411606 -0.245326-4.417641 -3.827216 -2.670963 0.514237 -1.485496 -0.248754-4.226793 -3.678215 -2.477577 0.514706 -1.469244 -0.236042-4.815492 -4.832885 -1.733338 0.670001 -1.516215 -0.218456-5.740293 -5.366391 -1.872831 0.733416 -1.670549 -0.232212-5.400007 -4.842747 -2.350369 0.651850 -1.641815 -0.225391-5.552074 -4.895910 -2.829781 0.654263 -1.674483 -0.222153-4.915132 -4.719303 -2.698693 0.594446 -1.547510 -0.193447-4.659620 -4.530934 -2.127664 0.562707 -1.461968 -0.161624-5.252413 -5.136347 -1.393550 0.631097 -1.514151 -0.155140-4.967551 -4.998331 -2.104235 0.573730 -1.505052 -0.147671-4.197744 -4.156857 -2.105308 0.433213 -1.329776 -0.115227-4.216093 -4.212289 -1.574847 0.389009 -1.281245 -0.108288-4.423379 -4.875350 -0.079984 0.434814 -1.170499 -0.095594-5.730678 -5.775426 1.040848 0.528045 -1.230367 -0.100714-6.628113 -5.768936 1.607518 0.495829 -1.263218 -0.093167-6.481951 -6.175536 2.919001 0.504823 -1.100613 -0.064424-6.216048 -6.412102 3.002872 0.466417 -1.025933 -0.052950-7.589156 -6.806274 3.123510 0.457370 -1.080490 -0.035979-6.738976 -6.763174 3.106800 0.373111 -0.951511 -0.016074-6.806093 -7.115216 2.533379 0.360578 -0.887763 -0.006443-6.851382 -6.648657 2.329742 0.266965 -0.776753 0.024448-6.559595 -6.524728 2.790831 0.235902 -0.680967 0.037331-7.917722 -7.155861 3.187532 0.307747 -0.754184 0.037871-8.615981 -7.399875 3.265381 0.337281 -0.825143 0.030142-7.837968 -7.168584 3.565785 0.302132 -0.688420 0.046370-6.441089 -6.847890 2.867790 0.238924 -0.537617 0.054435-7.124288 -6.569269 2.551848 0.245521 -0.661889 0.057205-7.617409 -6.742363 2.347488 0.310840 -0.790593 0.055027-6.806516 -6.661592 2.548012 0.374267 -0.719655 0.075151-5.922085 -6.061215 2.142286 0.351378 -0.673164 0.091179-5.927673 -6.003996 1.470734 0.416488 -0.752799 0.093112-5.963282 -5.601939 0.556173 0.424638 -0.877714 0.087943-5.813864 -5.298063 0.275754 0.454803 -0.900869 0.095446-5.081343 -5.090776 -0.330514 0.464474 -0.881033 0.095072-5.132428 -4.810401 -0.726315 0.483055 -0.964175 0.088856-4.703132 -4.748270 -0.996165 0.494763 -0.946594 0.090001-4.044186 -4.542243 -0.777710 0.493325 -0.862008 0.104079-3.697721 -4.298053 -0.731267 0.482868 -0.848121 0.110506-3.662470 -3.991989 -1.014481 0.454112 -0.896193 0.106943-3.355621 -3.799575 -1.048828 0.430588 -0.869035 0.111709-3.116419 -3.681266 -0.794333 0.412462 -0.820619 0.120573-2.717110 -3.593805 -0.350112 0.394245 -0.756070 0.128692-3.355167 -3.467289 0.070597 0.372948 -0.848918 0.123097-3.768046 -3.245279 0.485652 0.327882 -0.882406 0.122783-3.058250 -3.146362 1.447130 0.279183 -0.721135 0.138950-3.265463 -3.456795 2.179984 0.295860 -0.736442 0.138906-3.047392 -3.536160 2.787667 0.276441 -0.679592 0.137476-2.920148 -3.242048 2.918552 0.184091 -0.663386 0.140445-3.183619 -3.038416 2.706389 0.147752 -0.677237 0.138901-2.853875 -2.972303 2.200265 0.104863 -0.657763 0.135576-2.702222 -2.735621 1.948519 0.074440 -0.596579 0.147497-2.206244 -2.692987 1.513161 0.056635 -0.540215 0.151621-2.981930 -2.612371 1.214117 0.066906 -0.629396 0.147358-3.278383 -2.563191 0.892420 0.071786 -0.675359 0.140986-2.285219 -2.066919 0.316912 0.011645 -0.547290 0.146612-2.390988 -2.130047 0.020408 0.014014 -0.540616 0.145421-2.828803 -1.753723 -0.088072 -0.003943 -0.613824 0.142167-2.680890 -1.714711 0.500416 0.027696 -0.583174 0.149450-2.379149 -1.532075 0.576880 0.049022 -0.551307 0.154646-2.052815 -1.180267 0.883422 0.039717 -0.532624 0.157378-2.057204 -0.994957 1.063373 0.051762 -0.559404 0.155713-2.113367 -0.675362 0.847143 0.034757 -0.588717 0.154289-1.893936 -0.513128 0.762235 0.024678 -0.592265 0.155188-1.514900 -0.403622 0.875432 0.013986 -0.551176 0.161889-1.676691 0.030877 0.549072 -0.041434 -0.595011 0.163301-2.213137 -0.312557 0.009915 -0.001097 -0.701051 0.152264-1.136319 -0.119394 0.218253 -0.034225 -0.567956 0.167485-1.613578 -0.005101 0.440418 -0.046695 -0.620682 0.176113-2.643169 -0.407846 0.124480 0.013008 -0.781853 0.162052-1.143671 -0.059611 0.247835 -0.054829 -0.605539 0.175855-1.349705 0.305307 0.394418 -0.093341 -0.634929 0.181589-1.777515 -0.140718 0.560384 -0.041578 -0.695548 0.176897-1.363438 0.125701 1.449095 -0.071808 -0.648917 0.187430-2.595046 -0.049135 1.536400 -0.058590 -0.815218 0.171099-1.570495 0.043488 1.864371 -0.100890 -0.680245 0.177925-1.560092 -0.125915 2.649535 -0.102524 -0.698611 0.176134-2.487722 -0.332454 2.505850 -0.112051 -0.877182 0.157078-1.988629 -0.358968 2.993674 -0.170350 -0.833105 0.166153-2.160420 -0.624553 2.970027 -0.201358 -0.880686 0.160279-2.248235 -0.543044 2.890756 -0.303772 -0.908672 0.163876-2.023476 -0.867628 2.733136 -0.302756 -0.880877 0.164259-2.189693 -1.144076 2.724559 -0.340523 -0.892243 0.169034-2.059188 -1.361964 2.293793 -0.348029 -0.857276 0.173798-2.347682 -0.985125 1.769589 -0.425480 -0.866741 0.180709-2.042120 -0.780279 1.593498 -0.492800 -0.850236 0.167659-1.828560 -0.740380 1.531055 -0.517878 -0.797433 0.149038-2.431500 -0.767805 1.555306 -0.559740 -0.823466 0.125417-2.076174 -0.835314 1.257193 -0.590584 -0.792740 0.094670-2.558552 -0.596230 1.630465 -0.626893 -0.805525 0.080862-1.608621 -0.366213 1.030674 -0.680740 -0.733808 0.050453-2.281788 -0.838123 1.863833 -0.613933 -0.762494 0.020527-1.968204 -0.802773 2.002692 -0.621403 -0.749100 0.003856-2.854328 -1.225439 1.263342 -0.567401 -0.911205 -0.045246-2.766234 -0.420772 0.637026 -0.653050 -0.948402 -0.068722-2.982307 -0.429452 0.216275 -0.632480 -1.033802 -0.095881-2.285008 -0.311095 -0.222239 -0.616755 -0.991204 -0.091150-2.645098 -0.292661 -0.537942 -0.578085 -1.010796 -0.086190-2.593396 -0.558409 -0.305849 -0.492554 -1.051024 -0.091077-2.396478 -0.541532 -0.267208 -0.458998 -1.015656 -0.094011-2.322518 -0.373339 -0.573019 -0.423188 -1.051503 -0.106233-2.312037 -0.106295 -1.185750 -0.408298 -1.067037 -0.118922-2.322866 0.343614 -1.372439 -0.421004 -1.107844 -0.131451-2.512706 0.837585 -1.448532 -0.408954 -1.129339 -0.138873-1.626710 0.746575 -1.610831 -0.367063 -1.008997 -0.140531-1.729909 0.651683 -0.826387 -0.291729 -0.961054 -0.135081-2.170145 0.552064 -0.632145 -0.222895 -1.021746 -0.153479-1.823632 0.930543 -0.931082 -0.224035 -0.992986 -0.166239-2.155157 0.945418 -1.329972 -0.185218 -1.060485 -0.189017-1.766388 1.752317 -1.945668 -0.249798 -1.034942 -0.195037-2.101173 1.623495 -1.428665 -0.179390 -1.044316 -0.179090-1.654561 1.071484 -0.864476 -0.082984 -0.951305 -0.156135-2.174277 0.518883 -0.499892 0.022800 -0.992548 -0.154822-1.046040 1.066501 -0.450055 -0.029190 -0.891435 -0.146442-1.582942 1.625532 -1.041115 -0.087427 -0.999428 -0.165445-1.528449 2.041457 -1.587711 -0.131606 -1.063083 -0.183694-2.196569 2.032970 -1.494586 -0.099365 -1.140818 -0.195640-1.617048 1.913423 -0.628452 -0.073751 -1.022216 -0.178450-1.396930 1.555521 -0.146210 -0.015974 -0.973160 -0.178576-1.645950 1.558038 0.204399 0.007133 -1.015503 -0.190232-1.861260 1.789159 -0.226752 -0.016991 -1.104852 -0.215788-2.093859 2.009678 -0.410038 -0.021324 -1.144514 -0.222120-1.346905 2.393661 -0.494840 -0.064387 -1.075523 -0.208177-1.392714 2.228827 -0.344290 -0.016780 -1.097491 -0.202781-1.864770 2.100345 -0.057333 0.028033 -1.145657 -0.195663-1.266852 1.767071 0.303645 0.090592 -1.042477 -0.178193-1.070470 2.198545 0.749371 0.062094 -0.997134 -0.163713-0.986677 2.051619 0.678861 0.101156 -0.995732 -0.167760-0.711942 2.409636 0.567684 0.076799 -0.985374 -0.166469-1.171653 2.341035 0.234217 0.102426 -1.068389 -0.182384-1.152563 2.621537 0.408172 0.088063 -1.065090 -0.179139-0.471817 2.754896 0.825500 0.084797 -0.958048 -0.164555-0.445945 2.746535 0.887302 0.094513 -0.966243 -0.167611-1.291553 2.826250 1.221514 0.112275 -1.078907 -0.176675-0.315699 2.791986 0.999213 0.106769 -0.989288 -0.176294-0.495585 3.238375 1.107869 0.064824 -1.008613 -0.175050-1.140647 3.193945 1.245186 0.093431 -1.110247 -0.185907-1.384471 2.797749 1.226834 0.143812 -1.164523 -0.198607-0.828052 3.168772 1.400550 0.106827 -1.074704 -0.186657-0.265740 3.231006 1.494420 0.098982 -0.996512 -0.180340-0.994742 3.106783 1.427662 0.130301 -1.114326 -0.197776-1.589626 2.974610 1.467321 0.158256 -1.235292 -0.218522-1.264690 2.928298 1.499189 0.167494 -1.162467 -0.209059-0.461468 3.022884 1.523724 0.152279 -1.054326 -0.195367-1.005743 2.983559 1.253402 0.177428 -1.163838 -0.205262-1.251696 2.852831 1.285036 0.208337 -1.202921 -0.200951-0.883422 2.833639 1.188130 0.217391 -1.152418 -0.188454-0.540071 2.805861 1.227239 0.227898 -1.090509 -0.171460-0.584571 2.768807 1.078698 0.244344 -1.123198 -0.172197-0.791929 2.633851 0.756217 0.268860 -1.172928 -0.177472-0.717301 2.508860 0.670829 0.285037 -1.149448 -0.168475-0.837717 2.359074 0.740849 0.301870 -1.162464 -0.167110-0.898856 2.316044 0.656353 0.301178 -1.178351 -0.168240-1.028234 2.162352 0.425798 0.315520 -1.204431 -0.170837-0.868249 1.998610 0.330552 0.325346 -1.186866 -0.165411-1.147321 1.777385 0.462295 0.353542 -1.224973 -0.163248-1.282477 1.630383 0.460279 0.370703 -1.256282 -0.168543-1.210990 1.538121 0.495088 0.375294 -1.259747 -0.174033-1.309174 1.359250 0.330880 0.388708 -1.274409 -0.181742-1.364706 1.240957 0.325169 0.386582 -1.284361 -0.188029-1.577741 0.963286 0.608865 0.405392 -1.308834 -0.197320-1.781196 0.703116 0.725786 0.414514 -1.327712 -0.209012-1.764851 0.508512 0.758984 0.390948 -1.325181 -0.219298-1.881705 0.303979 0.854296 0.367324 -1.340291 -0.225852-1.947484 0.141932 0.910428 0.306426 -1.351106 -0.230701-2.060944 -0.086274 1.000529 0.252654 -1.358959 -0.230932-2.234106 -0.315722 1.179909 0.190476 -1.393831 -0.218905-2.322988 -0.450767 1.269763 0.145134 -1.436316 -0.206585-2.417790 -0.633485 1.487328 0.091900 -1.448897 -0.192174-2.484523 -0.842712 1.494976 0.056739 -1.471816 -0.183914-2.405683 -1.114469 1.791507 -0.002343 -1.477841 -0.172838-2.541587 -1.095694 2.056772 -0.051863 -1.506096 -0.165721-2.585527 -1.273694 2.135724 -0.111226 -1.524741 -0.157657-2.129951 -1.163884 2.265070 -0.199077 -1.477900 -0.137606-2.093830 -1.095640 2.482099 -0.273172 -1.480068 -0.120217-2.053571 -1.217117 2.806001 -0.312333 -1.455938 -0.110545-2.462680 -1.322032 3.312658 -0.365648 -1.483414 -0.109936-2.539571 -1.304158 3.802387 -0.411969 -1.447577 -0.105696-2.737529 -1.400036 4.317451 -0.444216 -1.418055 -0.108736-3.079477 -1.502626 4.856553 -0.461684 -1.402746 -0.122868-3.393267 -1.649037 5.458965 -0.489245 -1.345650 -0.137946-3.515281 -1.872624 5.938736 -0.505656 -1.265866 -0.149590-3.707940 -2.022040 6.007342 -0.521612 -1.229121 -0.165918-3.781904 -2.166209 6.063805 -0.525166 -1.194099 -0.177291-4.079044 -2.144125 5.734292 -0.542406 -1.196003 -0.188550-4.112072 -2.101730 5.623894 -0.548769 -1.195356 -0.180235-4.081530 -2.058646 5.399360 -0.556313 -1.182878 -0.168332-4.253427 -1.968115 5.123396 -0.570703 -1.195792 -0.164959-4.343316 -1.985886 5.172831 -0.571812 -1.190819 -0.160570-4.621698 -2.038873 5.063122 -0.569086 -1.222700 -0.165288-4.607255 -1.782156 4.827914 -0.603084 -1.238133 -0.168212-4.390958 -1.450014 4.368887 -0.648712 -1.232767 -0.172487-4.084422 -1.152362 3.981753 -0.695443 -1.216792 -0.176839-3.720630 -1.014995 3.709893 -0.726647 -1.185031 -0.180597-3.562576 -1.138398 3.764928 -0.735148 -1.139374 -0.180627-3.349348 -1.162150 3.832228 -0.751775 -1.107993 -0.186018-3.432015 -1.172952 3.695331 -0.780665 -1.118409 -0.199735-3.725763 -1.056968 3.206794 -0.814176 -1.178044 -0.220942-3.651806 -1.123155 3.078504 -0.830753 -1.164954 -0.224959-3.789919 -1.289593 3.128240 -0.830163 -1.167280 -0.224954-3.740281 -1.420462 3.345138 -0.827899 -1.148251 -0.216357-3.334073 -1.450954 3.477039 -0.847041 -1.090409 -0.199090-2.780406 -1.309032 3.488836 -0.886874 -1.026314 -0.187023-2.753237 -0.964901 3.525517 -0.944556 -1.045374 -0.186631-2.563983 -0.893679 3.027636 -0.976026 -1.081445 -0.202760-2.177509 -0.820752 2.963607 -1.021593 -1.026362 -0.198421-2.407232 -0.572844 3.115353 -1.061260 -1.038514 -0.197490-2.669885 -0.978613 3.263541 -1.035785 -1.073975 -0.207162-2.848827 -1.414977 3.091352 -1.014390 -1.097526 -0.215726-2.981890 -1.218780 3.513503 -1.056686 -1.064720 -0.197973-3.033063 -1.488549 3.440159 -1.044444 -1.092362 -0.206294-3.219375 -1.580013 3.278792 -1.060554 -1.128708 -0.213449-3.359460 -1.368161 3.173053 -1.102232 -1.143320 -0.213156-2.523783 -1.528327 2.771596 -1.109474 -1.057215 -0.205479-2.373483 -1.188897 2.863161 -1.176527 -1.031544 -0.192026-3.073392 -1.316207 2.730703 -1.163965 -1.136082 -0.202885-2.929238 -1.576936 3.268478 -1.159789 -1.061083 -0.179017-2.468752 -2.176662 3.490158 -1.108780 -1.003118 -0.171654-2.453846 -2.149819 3.162491 -1.155071 -1.021305 -0.178321-2.927991 -1.895424 2.486011 -1.208261 -1.142760 -0.207885-2.827870 -1.376217 2.082588 -1.304443 -1.157799 -0.213935-1.779965 -1.646242 2.893694 -1.306996 -0.920563 -0.162143-2.091164 -2.163212 2.891917 -1.263348 -0.987275 -0.176974-2.855906 -2.549866 2.785899 -1.222891 -1.154702 -0.210333-2.854720 -2.301047 2.668626 -1.265186 -1.137293 -0.205277-2.195049 -1.757666 2.662461 -1.336555 -1.045856 -0.185282-2.158060 -2.122781 2.432797 -1.320763 -1.048377 -0.196855-2.095132 -2.052242 2.098070 -1.364642 -1.099406 -0.220072-3.041589 -2.225098 2.792339 -1.333979 -1.118839 -0.209199-2.629474 -2.192841 3.781582 -1.350679 -0.998564 -0.185570-3.026109 -2.318712 4.560502 -1.285433 -0.984887 -0.191027-3.634019 -2.110136 4.650305 -1.282498 -0.995316 -0.196690-3.538953 -1.846757 5.602789 -1.287065 -0.817019 -0.157565-4.070745 -2.066279 5.899202 -1.230980 -0.744250 -0.159974-4.959793 -2.151253 5.572717 -1.182256 -0.777448 -0.177829-5.416901 -1.965006 6.816617 -1.159226 -0.599755 -0.129834-5.306887 -2.225733 7.297061 -1.081564 -0.490178 -0.114567-5.563764 -2.190027 5.939495 -1.030658 -0.507455 -0.139072-5.807494 -1.737436 6.607536 -1.029393 -0.373901 -0.097732-5.284236 -1.545685 6.674628 -0.995074 -0.279531 -0.082643-6.157427 -1.377557 5.975951 -0.969849 -0.366155 -0.103209-5.129516 -0.780741 5.819822 -0.960676 -0.203225 -0.077458-5.838463 -0.434763 4.920741 -0.961229 -0.341567 -0.115663-5.387472 0.137756 4.747856 -0.997118 -0.254857 -0.093715-5.273497 0.133882 4.774328 -0.941808 -0.265464 -0.098142-5.912811 -0.263384 4.059552 -0.845844 -0.423836 -0.143510-5.522191 -0.147193 3.569806 -0.833149 -0.425982 -0.149973-5.360471 0.292420 3.835199 -0.807681 -0.402110 -0.134426-5.558750 -0.279739 3.031999 -0.703955 -0.574908 -0.182191-6.082101 -0.276037 2.119036 -0.608301 -0.717133 -0.198096-4.570842 0.248542 2.500242 -0.628871 -0.528395 -0.142657-4.268491 0.474159 2.277917 -0.575137 -0.544192 -0.145475-4.286927 0.139987 1.219906 -0.476683 -0.661890 -0.191513-4.422209 0.831274 1.306072 -0.466697 -0.693429 -0.195078-3.570129 1.307772 1.407440 -0.464634 -0.599962 -0.178352-3.334127 0.606516 1.072281 -0.332045 -0.611709 -0.201352-3.272057 1.311281 0.388582 -0.355091 -0.727704 -0.243772-3.947297 1.767527 0.316167 -0.357806 -0.826979 -0.264584-2.195835 1.820036 0.637463 -0.346130 -0.606224 -0.230836-3.025478 1.551148 0.253487 -0.267444 -0.781875 -0.277985-2.701916 2.098461 0.286442 -0.300496 -0.798220 -0.274078-2.384645 2.362841 0.247306 -0.305563 -0.796414 -0.262435-1.965763 2.478374 0.778555 -0.289722 -0.744784 -0.228251-2.539574 1.994237 0.385854 -0.207421 -0.904433 -0.265215-2.276883 2.048969 0.701047 -0.188896 -0.926596 -0.262392-2.169610 2.251066 0.810496 -0.202605 -0.947014 -0.263889-1.892408 2.582852 0.740329 -0.215840 -0.947488 -0.258586-2.415348 2.483778 0.849074 -0.186333 -1.062183 -0.281030-2.039843 2.013897 1.682280 -0.109110 -1.033308 -0.266431-2.053646 2.013163 2.134843 -0.094937 -1.052592 -0.265889-2.372178 1.861612 2.075635 -0.057738 -1.139144 -0.287403-1.712268 2.277589 2.308324 -0.099370 -1.147494 -0.291620-2.237206 2.328707 2.600866 -0.085423 -1.233404 -0.302649-1.616322 2.115487 2.809971 -0.070116 -1.181243 -0.291810-1.469263 1.921423 3.943466 -0.047744 -1.130970 -0.264539-1.494719 1.788505 4.329877 -0.024029 -1.200390 -0.278394-1.737653 1.669066 4.947332 -0.003474 -1.251029 -0.276753-1.168522 1.956900 5.654703 -0.031779 -1.202456 -0.251188-0.661495 1.827725 5.467607 -0.020971 -1.176356 -0.243756-0.938775 2.246319 6.074368 -0.058781 -1.229011 -0.235519-0.400768 2.353594 6.452834 -0.061431 -1.198214 -0.222359-0.553851 2.263640 6.135022 -0.041545 -1.255111 -0.234299-0.513467 2.615730 6.713396 -0.063659 -1.235501 -0.218715-0.601945 2.672143 6.982553 -0.042047 -1.236127 -0.2162320.201232 2.674766 6.887408 -0.025357 -1.144017 -0.1995480.516775 2.951948 6.863267 -0.032184 -1.104181 -0.188377-0.033532 2.788147 7.131066 0.033698 -1.180865 -0.197270-0.149290 2.791638 7.256790 0.090295 -1.192421 -0.191304-0.221313 2.595109 7.055912 0.171123 -1.199775 -0.188743-0.036412 2.806425 6.836235 0.215225 -1.152044 -0.173136-0.179078 2.770571 6.611457 0.284596 -1.170953 -0.176730-0.152463 2.742179 6.483614 0.346686 -1.151601 -0.169806-0.147708 2.588209 6.468953 0.415020 -1.105064 -0.153523-0.406701 2.431501 6.379316 0.494343 -1.109257 -0.150704-0.435249 2.380063 6.277729 0.553736 -1.098609 -0.145859-0.393525 2.526467 6.335722 0.608891 -1.088142 -0.138164-0.540607 2.482607 6.024466 0.669930 -1.116042 -0.140304-0.474493 2.479951 5.792134 0.723170 -1.102136 -0.130015-0.277310 2.635199 5.729184 0.756826 -1.072659 -0.113099-0.167065 2.740716 5.531684 0.787498 -1.063598 -0.101623-0.110627 2.728169 5.305613 0.835737 -1.055047 -0.089318-0.013810 2.723197 5.233975 0.868599 -1.043788 -0.078078-0.040075 2.602674 5.367783 0.930145 -1.029296 -0.058851-0.203983 2.318202 5.290885 1.006482 -1.036128 -0.045263-0.564879 2.116013 5.274102 1.088664 -1.076009 -0.038294-1.124703 1.659978 5.333851 1.200480 -1.126651 -0.035650-1.194497 1.528809 5.412262 1.269575 -1.121867 -0.023453-1.377084 1.168472 5.294885 1.374100 -1.150038 -0.025605-1.390629 1.182162 5.003002 1.420954 -1.175196 -0.028103-1.939274 1.390342 5.225221 1.465142 -1.201384 -0.021104-1.306477 1.183497 4.782083 1.523202 -1.109260 -0.004675-1.517564 1.329280 5.247594 1.563570 -1.089875 0.017607-2.684936 0.797567 5.735811 1.689643 -1.166509 0.017975-2.459493 0.720607 5.832059 1.738303 -1.117224 0.030456-2.822303 1.017233 5.687036 1.758081 -1.167431 0.021604-3.170457 1.605484 4.765729 1.711275 -1.244187 -0.000772-2.519627 1.985888 4.820385 1.707783 -1.112632 0.029141-3.061417 1.744539 5.041213 1.774861 -1.147628 0.030691-2.855646 1.227763 5.909711 1.856079 -1.043281 0.063883-2.176599 0.947754 5.761075 1.897684 -1.001725 0.063527-2.163613 1.813615 5.096495 1.801739 -1.077179 0.040653-2.014413 2.386249 4.570974 1.738499 -1.086803 0.039327-2.137140 2.259486 4.317319 1.729680 -1.160807 0.023880-1.894662 1.889196 5.283018 1.761135 -1.071604 0.059238-1.880067 0.998292 5.305999 1.848522 -1.076894 0.060889-2.088687 1.326075 4.880032 1.780203 -1.226461 0.028245-2.368942 1.502742 4.464012 1.711160 -1.313800 0.015180-2.128603 1.569330 4.006753 1.655175 -1.327440 0.012268-1.290986 1.369699 3.860469 1.615555 -1.281574 0.023072-1.344968 0.217424 4.017615 1.678819 -1.293715 0.023257-2.081951 -0.064448 3.491363 1.677408 -1.489866 -0.008596-1.800429 0.350823 3.663971 1.563437 -1.451560 0.012523-1.502363 0.242895 3.189811 1.506499 -1.453438 0.018146-2.100576 -0.191876 3.141776 1.507052 -1.583645 0.001629-1.772759 -0.588514 2.614051 1.472998 -1.607028 -0.007855-2.464671 -0.631469 2.450890 1.412892 -1.669441 -0.004864-1.435537 -0.555803 2.339883 1.328858 -1.558858 0.013062-1.199183 -1.014829 2.258069 1.309832 -1.506210 0.027064-1.645708 -1.602709 1.766577 1.298730 -1.608880 0.004920-0.693526 -1.644161 1.389911 1.213922 -1.526132 0.012345-1.688378 -1.336165 1.218120 1.134133 -1.598510 0.015366-0.542556 -1.542498 1.143727 1.055769 -1.477497 0.026266-1.376460 -1.944613 1.223118 1.063584 -1.547469 0.022339-0.549712 -2.158438 1.556682 1.011367 -1.410587 0.044657-0.865973 -2.287380 1.175154 0.961833 -1.481752 0.026167-1.316803 -2.389895 0.477308 0.920221 -1.570981 0.004317-1.085307 -2.511242 0.714382 0.860541 -1.522372 0.011732-1.173136 -2.591707 0.661578 0.809857 -1.531544 0.008011-0.825356 -2.890717 0.786658 0.761147 -1.434153 0.022751-1.041309 -3.250264 0.859184 0.749493 -1.461754 0.017196-1.376242 -3.446838 0.829591 0.733872 -1.502534 0.011274-1.087286 -3.936111 0.703661 0.715523 -1.450267 0.019444-1.715505 -3.729029 0.665044 0.650730 -1.513214 0.018026-1.408815 -3.582621 0.480548 0.559054 -1.482665 0.026828-2.762517 -4.080080 0.501566 0.572640 -1.641679 0.006687-2.200840 -4.447320 1.013959 0.546216 -1.524495 0.018692-2.497410 -4.952549 1.480859 0.536089 -1.514098 0.004903-1.868766 -4.606153 2.220673 0.411628 -1.398797 0.010623-2.724372 -4.663274 1.657922 0.354761 -1.540879 -0.032886-2.695930 -4.642789 1.331218 0.292015 -1.547987 -0.051281-1.974333 -4.675104 2.078507 0.221862 -1.360805 -0.034396-3.167053 -5.054218 3.124647 0.230160 -1.403723 -0.053626-2.832963 -5.119036 5.061312 0.182658 -1.268180 -0.055016-4.193327 -5.564336 6.087039 0.189206 -1.331150 -0.093311-4.322816 -5.380675 6.707482 0.129896 -1.304571 -0.111969-3.827379 -5.334487 8.045103 0.068263 -1.153602 -0.111503-4.947886 -5.812748 8.377234 0.076551 -1.199586 -0.136776-5.590103 -5.862939 8.491602 0.036519 -1.189307 -0.151190-5.757182 -6.194402 8.633577 0.027162 -1.049034 -0.137663-5.658069 -5.727416 7.824142 -0.064721 -0.956273 -0.134668-5.642854 -5.489143 7.542338 -0.117010 -0.901928 -0.131681-6.591604 -5.679567 7.186783 -0.098074 -0.958784 -0.148520-6.500316 -5.443818 6.908870 -0.145355 -0.904397 -0.148756-6.333186 -5.279887 6.708868 -0.177048 -0.794087 -0.135959-6.325467 -5.243041 6.332595 -0.194591 -0.745209 -0.139726-6.542051 -5.278790 6.127221 -0.202905 -0.752685 -0.153760-6.903142 -5.464664 5.903416 -0.182202 -0.759877 -0.159076-7.027152 -5.441260 5.384328 -0.193644 -0.762742 -0.166040-6.881988 -5.012429 4.876482 -0.244106 -0.768541 -0.168191-6.502151 -4.728763 4.515225 -0.270297 -0.731021 -0.148626-6.558356 -4.744666 4.036368 -0.248987 -0.761412 -0.139476-6.295854 -4.548659 3.856971 -0.251101 -0.750362 -0.124448-6.211071 -4.218193 3.769178 -0.273129 -0.775850 -0.122821-5.965541 -3.638002 3.159553 -0.331229 -0.789451 -0.128138-5.659746 -3.138810 2.445827 -0.384154 -0.775315 -0.132529-5.319324 -2.787258 2.145391 -0.420454 -0.761677 -0.139125-5.534265 -2.827744 2.315572 -0.407877 -0.788417 -0.149609-5.365342 -2.713384 2.488047 -0.413012 -0.748715 -0.150055-4.982885 -2.494044 2.328335 -0.444052 -0.719359 -0.154935-4.998588 -2.264016 1.880776 -0.470137 -0.775064 -0.175576-5.021416 -2.127179 1.652073 -0.483065 -0.827477 -0.187786-4.421010 -1.683083 1.571697 -0.527995 -0.810914 -0.181049-4.113466 -1.704403 1.533782 -0.521025 -0.804527 -0.172924-3.972484 -1.617491 1.413380 -0.525017 -0.839738 -0.168725-3.788045 -1.631686 1.313357 -0.524532 -0.861246 -0.161765-3.380732 -1.312373 1.153124 -0.569649 -0.846441 -0.147808-3.912181 -1.201975 1.009060 -0.580083 -0.958148 -0.158684-3.574313 -1.123654 0.942499 -0.603495 -0.947853 -0.155678-2.932154 -1.128305 1.022480 -0.627430 -0.878801 -0.143902-2.852093 -1.226517 0.847539 -0.639860 -0.927776 -0.158750-3.328437 -1.151048 0.998660 -0.653980 -1.029012 -0.174577-3.094535 -0.864344 1.019984 -0.701107 -1.046866 -0.180463-3.259546 -0.909028 0.751014 -0.717417 -1.103729 -0.194063-2.191633 -0.523633 0.556232 -0.795614 -1.014296 -0.183918-2.563192 -0.618863 0.419496 -0.797303 -1.097866 -0.197537-2.845310 -0.892874 0.462569 -0.775775 -1.174215 -0.208589-2.814500 -1.179481 1.212980 -0.743396 -1.136073 -0.189070-3.023001 -1.543268 1.451638 -0.717560 -1.181412 -0.197649-2.086333 -1.081054 0.831953 -0.788523 -1.147037 -0.204308-2.358492 -0.551369 0.776737 -0.861649 -1.202416 -0.210879-2.403233 -0.696513 0.334727 -0.857898 -1.268256 -0.234907-2.141679 -0.990495 1.051133 -0.830591 -1.200781 -0.217720-2.300421 -1.057823 1.498953 -0.812552 -1.209909 -0.216847-1.512593 -1.068235 1.278768 -0.830753 -1.119155 -0.209518-1.550236 -0.670271 1.540171 -0.859466 -1.123710 -0.204532-2.041003 -0.902534 1.166209 -0.826636 -1.258379 -0.239183-2.512797 -0.789277 1.407756 -0.821720 -1.307395 -0.240019-2.184394 -0.790388 1.399595 -0.825349 -1.254954 -0.233019-2.076617 -0.510770 1.568870 -0.844042 -1.233359 -0.227420-1.563610 -0.306721 1.699537 -0.876375 -1.180754 -0.223311-2.522346 -0.440213 1.974658 -0.833155 -1.272514 -0.239692-2.772612 -0.468675 2.433152 -0.814125 -1.303955 -0.247717-1.986808 -0.804716 3.142172 -0.780320 -1.125271 -0.216390-2.225391 -0.519207 3.683173 -0.804775 -1.142457 -0.220082-2.699144 -0.846387 3.906445 -0.772763 -1.204264 -0.242027-2.693240 -0.788430 4.536508 -0.777990 -1.196338 -0.240348-3.080343 -0.939447 4.811605 -0.776295 -1.237382 -0.249545-2.782982 -0.881951 5.106415 -0.795899 -1.185544 -0.239656-2.154298 -0.558056 5.407908 -0.855477 -1.095365 -0.221654-2.704295 -0.924408 5.575265 -0.800509 -1.145717 -0.229180-2.344121 -0.735375 5.913254 -0.802535 -1.028171 -0.196073-2.650530 -0.995957 5.924717 -0.750481 -1.033293 -0.200685-3.515162 -0.511117 5.300734 -0.781134 -1.142264 -0.221203-2.826151 0.089651 4.336933 -0.851270 -1.048802 -0.212426-3.167467 0.101030 3.989593 -0.833582 -1.097024 -0.224869-2.522981 0.203826 3.804129 -0.838031 -0.956505 -0.195146-2.407716 0.017624 4.343004 -0.793652 -0.886210 -0.174119-2.614613 0.094686 4.598435 -0.779924 -0.889919 -0.170076-2.863347 -0.149233 3.667453 -0.733949 -0.947276 -0.195245-3.243919 0.403205 3.269296 -0.798524 -1.024613 -0.213541-2.903548 0.321727 2.978710 -0.779017 -0.965501 -0.209660-2.867536 0.635498 2.516318 -0.819608 -0.964459 -0.213564-3.288760 0.305279 2.765738 -0.776781 -0.951311 -0.208428-3.259440 0.381241 3.414640 -0.759967 -0.929570 -0.196852-3.694970 -0.522003 3.663108 -0.647889 -0.920884 -0.197855-3.052772 -0.031216 3.586508 -0.698959 -0.845402 -0.187300-3.020825 0.291105 3.415877 -0.731381 -0.848477 -0.192740-3.485738 1.083389 3.020895 -0.818581 -0.955359 -0.220356-3.327401 0.615937 2.769380 -0.756456 -0.964731 -0.234080-3.277829 0.836916 3.796178 -0.766660 -0.899384 -0.201671-2.644770 0.234753 4.559352 -0.699911 -0.782179 -0.174685-3.069666 0.354792 5.079261 -0.716982 -0.865048 -0.190607-3.591591 0.338167 4.847806 -0.704510 -1.003227 -0.229388-3.726096 0.716753 4.360146 -0.741498 -1.077709 -0.250681-2.549565 0.975151 4.554276 -0.777774 -0.919101 -0.216485-2.897557 1.104817 4.627151 -0.772306 -0.972773 -0.224137-3.718364 0.765426 5.091684 -0.707257 -1.081220 -0.242735-3.475224 0.383438 5.423370 -0.648027 -1.031202 -0.230001-2.318708 1.066366 5.909832 -0.712565 -0.853184 -0.184331-2.413330 0.996751 5.312257 -0.703390 -0.912634 -0.208327-3.282199 0.972171 5.442474 -0.671257 -1.059649 -0.238967-3.638175 0.769293 5.762821 -0.625964 -1.112211 -0.249846-2.294630 0.692173 5.861080 -0.630132 -0.894097 -0.208203-2.674006 1.021237 6.057937 -0.652151 -0.963995 -0.220258-3.615588 0.552820 5.703268 -0.584523 -1.128264 -0.263644-3.249036 0.581456 5.634314 -0.586793 -1.102202 -0.257517-3.051561 0.857054 5.805528 -0.614243 -1.067432 -0.243014-2.154263 1.104256 5.351546 -0.649314 -0.976636 -0.226899-2.515871 1.124648 5.166825 -0.641934 -1.058227 -0.243671-2.769628 1.248651 5.233884 -0.652522 -1.117447 -0.254035-2.500153 1.161657 5.281019 -0.631369 -1.059932 -0.239160-2.068698 1.278829 5.080181 -0.657080 -1.036261 -0.240925-1.599200 1.609893 4.995992 -0.705022 -1.013143 -0.238214-2.204143 1.760495 4.498445 -0.725941 -1.131306 -0.266493-2.390976 1.602510 4.430577 -0.725372 -1.180854 -0.277938-2.026058 1.392967 4.359070 -0.723405 -1.142624 -0.271402-1.802637 1.283557 4.278579 -0.740832 -1.103302 -0.260516-1.659136 1.320703 4.047799 -0.762057 -1.101392 -0.260895-1.931508 1.299787 3.830208 -0.777943 -1.163542 -0.273249-1.650179 1.067249 3.533659 -0.787690 -1.141424 -0.263500-1.343941 1.079967 3.503538 -0.801640 -1.098714 -0.252338-1.398829 1.117463 3.541230 -0.821711 -1.114236 -0.254805-1.938019 1.089629 3.412891 -0.834728 -1.203504 -0.274092-1.986638 0.904915 3.371946 -0.842890 -1.207451 -0.277260-1.324295 0.912314 3.373231 -0.880684 -1.113782 -0.257348-1.461825 0.697124 3.347493 -0.882219 -1.123405 -0.259482-1.623257 0.725321 3.424034 -0.917971 -1.175298 -0.272191-1.902235 0.712164 3.337365 -0.936542 -1.230975 -0.285450-1.474967 0.656512 2.962880 -0.966919 -1.182431 -0.276466-1.406306 0.647662 3.020053 -0.984505 -1.160954 -0.267074-1.593578 0.662352 3.290830 -1.005610 -1.198197 -0.271376-1.299803 0.796270 3.161388 -1.036963 -1.168778 -0.264185-1.386762 0.479991 2.798126 -1.017463 -1.180975 -0.270005-1.297962 0.491903 2.890900 -1.033146 -1.160474 -0.265273-1.664501 0.602469 3.291605 -1.041493 -1.178850 -0.262517-1.984573 0.457090 3.256894 -1.024756 -1.196026 -0.269478-1.599694 0.358573 3.017928 -1.016369 -1.131805 -0.264002-1.683327 0.216421 3.335931 -0.990184 -1.080084 -0.249412-2.384583 0.060130 3.924040 -0.944220 -1.111849 -0.250097-2.657394 -0.226560 4.024096 -0.896669 -1.138353 -0.260774-2.101576 -0.023484 3.833224 -0.906486 -1.055269 -0.248281-2.075645 0.582390 3.779206 -0.960341 -1.016981 -0.234853-2.452268 0.580488 3.910924 -0.916270 -1.040722 -0.239517-2.445259 0.367995 4.063199 -0.853934 -1.024487 -0.239039-2.350816 0.428394 4.167091 -0.817094 -0.951913 -0.219708-2.314299 0.751987 3.994851 -0.809215 -0.944082 -0.225103-2.391326 0.975974 3.732404 -0.797346 -0.966122 -0.241585-2.591007 1.231212 3.376987 -0.783062 -0.984180 -0.254269-2.353388 1.124471 3.662697 -0.709415 -0.894849 -0.241783-2.285218 1.217073 3.836279 -0.666061 -0.861042 -0.242180-2.249052 1.491131 3.754339 -0.644789 -0.842228 -0.246645-2.497349 1.772267 3.390100 -0.591435 -0.860726 -0.262229-2.640632 1.737622 3.192009 -0.510394 -0.870151 -0.263620-2.634241 1.791694 3.276153 -0.433002 -0.825126 -0.240747-2.542792 1.894218 3.293637 -0.374581 -0.768446 -0.217876-2.888007 1.868223 3.273371 -0.298951 -0.791415 -0.218971-3.008686 1.813183 3.212006 -0.246910 -0.791213 -0.219337-2.917971 1.865348 3.203862 -0.199845 -0.729761 -0.202224-2.826390 1.890547 3.066805 -0.172133 -0.689926 -0.192337-2.925940 1.934608 3.146082 -0.139359 -0.650676 -0.178169-3.280951 1.873924 3.170829 -0.096249 -0.660191 -0.176509-3.319644 1.669462 3.057798 -0.054234 -0.602700 -0.160186-3.165923 1.727994 3.078942 -0.047728 -0.534737 -0.139959-3.158038 1.779699 3.122150 -0.048498 -0.490576 -0.125034-3.518562 1.439478 3.000273 -0.009923 -0.512623 -0.129197-3.534789 1.363262 3.005471 -0.003489 -0.493963 -0.123813-3.529520 1.126974 3.181150 0.013082 -0.432322 -0.106157-3.541719 1.035946 3.162965 0.013525 -0.393762 -0.097064-3.491015 0.971734 3.076764 0.009062 -0.355502 -0.087187-3.751630 0.796577 2.695195 0.019065 -0.348872 -0.083610-3.484311 0.585823 2.612766 0.027084 -0.280189 -0.063124-3.217142 0.498278 2.825472 0.025060 -0.172581 -0.020447-4.035090 0.031863 2.670807 0.083097 -0.262742 -0.029087-4.098165 -0.325437 2.500092 0.124133 -0.240546 -0.005384-3.838022 -0.211777 2.674976 0.107820 -0.149752 0.037179-3.931197 -0.483055 2.331702 0.132044 -0.166905 0.048477-3.581484 -0.395475 2.198706 0.120003 -0.121575 0.074477-4.539577 -0.457649 2.233329 0.132934 -0.228894 0.071938-4.186153 -0.778255 2.017946 0.168384 -0.196706 0.089567-4.152332 -0.733854 2.240190 0.173936 -0.144215 0.124186-3.416577 -0.556644 1.719249 0.144816 -0.088559 0.136492-4.144274 -0.509425 1.541839 0.163992 -0.190725 0.126905-3.913789 -0.662116 1.212061 0.185739 -0.184826 0.127440-3.782461 -0.567409 1.421080 0.174629 -0.162398 0.143670-3.519938 -0.619808 1.450065 0.189692 -0.137162 0.152841-3.137542 -0.611240 0.995500 0.170055 -0.155107 0.147537-3.696693 -0.472673 1.141849 0.172325 -0.248226 0.134937-2.760753 -0.386746 0.801769 0.136821 -0.197198 0.143031-2.378557 -0.280926 1.242656 0.109636 -0.134387 0.176149-2.634988 -0.507553 0.899916 0.126712 -0.256969 0.149537-2.537597 -0.429948 0.626514 0.095520 -0.312554 0.137224-2.175831 -0.391757 0.729722 0.059805 -0.316678 0.142028-2.181212 -0.759614 0.700996 0.079725 -0.367841 0.134897-2.056236 -0.869781 1.083984 0.056199 -0.366076 0.143932-1.705081 -1.260567 0.998743 0.073998 -0.391103 0.139586-2.799203 -1.479861 1.133049 0.071900 -0.626151 0.102176-2.104691 -1.429942 0.966646 0.046248 -0.579928 0.107821-1.173801 -1.732268 1.073998 0.036366 -0.506802 0.121883-1.630557 -1.744031 1.297746 0.024977 -0.596196 0.109746-1.894749 -1.901552 1.465571 0.025608 -0.682700 0.093602-0.748688 -1.925344 1.556488 -0.000404 -0.592458 0.109199-1.042591 -1.959305 1.582231 -0.016297 -0.637207 0.104644-1.318569 -2.107547 1.736338 -0.005578 -0.718903 0.093651-0.610845 -2.074569 1.808910 -0.042608 -0.677884 0.099146-1.352567 -2.053565 1.543046 -0.052252 -0.825846 0.068315-1.223771 -2.054600 1.532187 -0.070352 -0.817834 0.075112-0.528505 -2.118501 1.864629 -0.075310 -0.713870 0.102797-0.446622 -2.169337 2.037153 -0.078048 -0.726378 0.103100-0.775380 -2.105402 2.147883 -0.075731 -0.775935 0.098363-0.731107 -2.168893 2.351402 -0.073656 -0.802154 0.0950020.010947 -1.594511 2.119645 -0.148257 -0.746753 0.1001280.399581 -1.519698 2.164163 -0.168961 -0.692751 0.1145830.349815 -1.523191 2.553140 -0.164567 -0.724952 0.106770-0.055900 -1.595050 2.503332 -0.162363 -0.805925 0.0706040.031900 -1.560129 2.490745 -0.175090 -0.801386 0.0559750.419104 -1.410854 2.642325 -0.200603 -0.765362 0.0517870.108197 -1.266399 2.563372 -0.213474 -0.831974 0.030234-0.041066 -1.198103 2.642947 -0.216142 -0.857671 0.022813-0.030103 -1.176759 2.612221 -0.212339 -0.861579 0.018453-0.111260 -1.029052 2.719279 -0.218122 -0.854315 0.0194420.355520 -0.752432 2.762434 -0.238994 -0.790643 0.0264860.112044 -0.507004 2.542152 -0.245685 -0.827954 0.006980-0.097183 -0.239277 2.585598 -0.252082 -0.853558 -0.004351-0.161633 -0.078635 2.487124 -0.237086 -0.862099 -0.0135750.125256 0.140819 2.572409 -0.225219 -0.799757 0.0003230.225491 0.346994 2.450310 -0.204926 -0.777425 0.002087-0.225852 0.388247 2.226055 -0.158170 -0.831498 -0.015144-0.251475 0.510905 2.242613 -0.129913 -0.835584 -0.030534-0.161036 0.790605 2.247879 -0.128291 -0.799329 -0.035833-0.135389 1.157641 1.902050 -0.128965 -0.775618 -0.049859-0.399552 1.231760 1.748721 -0.102375 -0.813997 -0.070008-0.739399 1.369789 1.866335 -0.069215 -0.832320 -0.080771-0.621786 1.403333 2.056866 -0.038308 -0.777350 -0.068299-0.506561 1.513721 2.038519 -0.003281 -0.725019 -0.059323-0.594343 1.676029 1.958638 0.022667 -0.725442 -0.064860-0.912678 1.713836 1.977466 0.075521 -0.748869 -0.073469-1.194248 1.715873 1.874578 0.126661 -0.764874 -0.081132-1.319106 1.883671 1.798525 0.156147 -0.755225 -0.083348-1.337317 1.892678 1.915537 0.211781 -0.724593 -0.078456-1.638902 1.908108 1.998929 0.275279 -0.706027 -0.068845-2.017249 1.982740 1.976762 0.332321 -0.721902 -0.062553-2.108051 1.781881 2.021734 0.432934 -0.704519 -0.043788-2.268146 1.772078 2.103694 0.504215 -0.671751 -0.013952-2.266967 1.999897 2.070719 0.562502 -0.639951 0.021837-2.394185 1.856989 2.122960 0.665582 -0.625351 0.052683-2.203014 1.786780 2.150306 0.749865 -0.580425 0.083341-2.175495 1.841367 2.204734 0.813671 -0.529821 0.113879-2.258854 1.949064 2.408779 0.869608 -0.507323 0.133621-2.454882 1.801332 2.067239 0.951328 -0.555154 0.124842-2.458436 1.852347 2.171862 1.013408 -0.521849 0.140298-2.497245 1.781419 2.518151 1.074411 -0.498950 0.153333-2.563709 1.347643 2.587967 1.178955 -0.487154 0.159832-3.095127 1.350955 2.993084 1.234199 -0.533371 0.161820-2.997031 1.207152 2.855862 1.286457 -0.573155 0.145889-2.904885 1.319702 3.477264 1.319335 -0.545878 0.161004-2.910309 1.081630 3.511758 1.373093 -0.602466 0.149010-3.226505 1.031236 3.661964 1.428020 -0.685611 0.144335-3.032035 1.217256 3.585205 1.419487 -0.711726 0.139087-2.749059 1.379956 4.205706 1.430725 -0.678255 0.164488-2.642314 1.360727 4.410550 1.437838 -0.713121 0.166296-2.978683 1.073224 4.912106 1.481726 -0.798552 0.164800-3.296422 0.921744 4.492700 1.515590 -0.969108 0.125750-3.121375 1.104730 5.174637 1.490545 -0.919038 0.152775-2.607230 0.753524 5.488549 1.522936 -0.832241 0.178846-2.650962 0.388362 5.102666 1.564072 -1.004370 0.125178-2.980986 0.418602 5.809254 1.562714 -1.059543 0.117747-2.465208 0.549596 6.980225 1.544945 -0.923647 0.164091-2.035083 -0.001382 6.632131 1.576116 -0.953572 0.148145-2.111791 0.183518 6.800743 1.556995 -1.044653 0.140956-2.069166 -0.007221 7.251482 1.553365 -1.079004 0.147630-1.730365 -0.084237 7.311288 1.528658 -1.148939 0.132921-1.691319 -0.101319 7.433188 1.494298 -1.133072 0.155032-1.451440 -0.628475 8.012614 1.507517 -1.142075 0.165754-2.042000 -1.064852 7.623897 1.537952 -1.384837 0.118694-1.681124 -1.072675 7.571450 1.469049 -1.305531 0.140624-0.633776 -1.143821 7.220241 1.412719 -1.253711 0.138513-0.796248 -0.950514 7.073474 1.336639 -1.357520 0.119525-0.992189 -1.252413 7.900139 1.321151 -1.291196 0.163594-0.835042 -1.388605 7.307880 1.289602 -1.424476 0.128669-1.024796 -1.304827 7.144322 1.222363 -1.468697 0.125914-0.239327 -1.664107 7.541307 1.216262 -1.307112 0.174461-0.689569 -1.673168 6.856503 1.156715 -1.522172 0.121527-0.606388 -1.803973 6.733369 1.138697 -1.490600 0.142971-0.500293 -2.434513 6.566567 1.158362 -1.491053 0.148023-0.520086 -2.258360 6.057342 1.099335 -1.568851 0.135599-0.571251 -2.951546 6.601549 1.141245 -1.479380 0.1806860.541196 -2.751248 5.749557 1.039472 -1.455709 0.1618890.010235 -2.767518 5.355022 0.999578 -1.563280 0.157944-0.216819 -2.810561 6.164883 0.947816 -1.502740 0.1909090.098604 -2.979013 5.600263 0.919915 -1.575514 0.1689560.248037 -2.985985 5.208014 0.862963 -1.554547 0.1697280.021576 -3.271368 5.946801 0.868484 -1.482334 0.2001640.243576 -2.982684 5.274296 0.778971 -1.624527 0.132663-0.464365 -3.308117 5.062304 0.796068 -1.658752 0.123927-0.417980 -3.052049 5.797208 0.720677 -1.565228 0.1383800.699398 -3.401974 5.757739 0.694711 -1.543561 0.106663-0.582864 -3.495626 5.672237 0.680094 -1.677353 0.086840-0.217629 -3.044987 6.203986 0.575249 -1.639884 0.0821330.127591 -3.518964 6.019979 0.595396 -1.691320 0.059715-0.357278 -3.222034 5.988810 0.533866 -1.767437 0.0383150.091513 -3.282022 6.461729 0.494556 -1.709705 0.037694-0.057940 -3.609642 7.092824 0.510606 -1.668979 0.0435610.033572 -3.615022 7.219650 0.474013 -1.735424 0.002766-0.775165 -3.668957 7.336483 0.466084 -1.791876 -0.016787-0.545479 -3.472831 7.609763 0.407208 -1.723370 -0.0282870.273417 -3.239388 7.938801 0.347960 -1.593807 -0.035188-0.616586 -3.772087 8.092406 0.406312 -1.662445 -0.062739-1.169558 -3.662437 8.365918 0.390603 -1.705669 -0.091117-1.216216 -3.629479 9.119420 0.386923 -1.566410 -0.082330-1.273850 -3.477561 10.189529 0.376766 -1.397127 -0.065375-1.732685 -3.786411 11.048331 0.429122 -1.373233 -0.080894-4.231648 -4.103966 11.587239 0.525972 -1.574094 -0.105232-3.455851 -3.467332 12.267195 0.464334 -1.311826 -0.081381-3.591552 -3.504440 12.438193 0.477139 -1.172223 -0.060073-3.381256 -3.152438 12.475925 0.434696 -1.030044 -0.051567-4.388252 -3.319475 12.409409 0.476517 -1.074912 -0.051496-4.830316 -3.636275 11.937824 0.538828 -1.046550 -0.035023-3.853618 -3.314452 11.541397 0.516807 -0.846649 -0.004664-4.953102 -2.972306 10.557753 0.525677 -1.012641 -0.031556-4.859465 -3.107979 10.099132 0.578621 -0.994807 -0.029391-4.530198 -3.052530 9.878738 0.649959 -0.850871 0.013062-4.771843 -3.256158 9.092481 0.756304 -0.881853 0.025064-3.850563 -2.835046 8.896560 0.762597 -0.765185 0.051678-4.075872 -2.391577 7.782950 0.817600 -0.870833 0.048345-3.801565 -2.080461 6.184714 0.838312 -0.900479 0.054183-3.582943 -1.393051 