ExtForce  stiffnessValue   h    x  desiredFrameZ  xdot  xddot  E  commandesPos  emgForce Fimp DesiredForceZ desiredDeltaZ -1.890002 -0.016405 -0.196153 -0.596306 -0.875027 -0.214224-1.990547 0.296885 -2.012986 -0.274337 -1.061030 -0.264382-2.107351 -0.436968 -0.849122 -0.338468 -1.024401 -0.205904-2.194776 -0.477738 -0.465805 -0.341995 -0.983803 -0.189532-2.190489 -0.432393 -0.239686 -0.390782 -0.973088 -0.205791-2.207072 -0.451234 -0.185232 -0.392152 -0.962013 -0.201812-2.198602 -0.451748 -0.118090 -0.398756 -0.952958 -0.203151-2.205255 -0.445460 -0.121388 -0.400332 -0.950020 -0.200529-2.204093 -0.442935 -0.062584 -0.402070 -0.947796 -0.205617-2.207338 -0.447912 -0.086804 -0.395561 -0.943785 -0.203555-2.214130 -0.462432 -0.095459 -0.390763 -0.938054 -0.199423-2.203384 -0.427615 -0.040742 -0.403859 -0.940000 -0.206797-2.197087 -0.436397 -0.043443 -0.403070 -0.938470 -0.206360-1.933709 -0.487607 -0.120713 -0.403593 -0.902139 -0.193382-1.605221 -0.600037 -0.212909 -0.399130 -0.825333 -0.174629-1.866959 -0.815928 0.002955 -0.387172 -0.776394 -0.142942-2.550312 -1.209628 0.078538 -0.349598 -0.800781 -0.101774-3.667526 -1.470601 -0.275436 -0.316067 -0.887183 -0.063592-3.848542 -1.475025 -0.188177 -0.275517 -0.886261 -0.022088-3.797437 -1.470511 -0.297387 -0.229030 -0.874076 0.010747-3.647735 -0.957003 -0.425867 -0.206496 -0.878552 0.046386-2.825490 -0.710291 -0.625502 -0.156567 -0.816002 0.076027-1.196275 -0.149131 -0.491773 -0.182345 -0.602583 0.1162950.225708 0.174149 -0.047708 -0.177749 -0.433556 0.1411150.549534 0.203476 -0.186456 -0.175467 -0.365562 0.1431440.888721 0.266036 -0.285800 -0.199804 -0.312680 0.1264990.222056 -0.174940 -0.920516 -0.170693 -0.387494 0.102353-0.384011 -0.217793 -1.360240 -0.190524 -0.396571 0.091842-1.184525 -0.891431 -1.656756 -0.126707 -0.451879 0.071864-2.569045 -1.615022 -1.433225 -0.039489 -0.567895 0.072208-3.152607 -2.171426 -0.560597 0.042931 -0.538344 0.101534-2.901444 -2.145581 -1.324106 0.024168 -0.618350 0.091166-2.318176 -1.024863 -1.682651 -0.102183 -0.595982 0.098559-0.736569 -0.302313 -2.229536 -0.196546 -0.501164 0.0965570.934404 0.161656 -1.992251 -0.241650 -0.286226 0.1243992.602922 0.385698 -1.039957 -0.255505 -0.022547 0.1549531.985317 0.157721 -1.290609 -0.216499 -0.195461 0.1189260.881112 -0.511962 -1.818129 -0.139529 -0.348878 0.086960-0.118224 -0.668265 -1.684339 -0.117404 -0.430829 0.060738-0.702616 -0.963551 -1.287547 -0.077576 -0.383173 0.061500-2.430751 -2.425474 -0.703239 0.127441 -0.536470 0.068650-4.742472 -2.938259 -1.367277 0.217873 -0.906826 0.039174-4.839437 -2.840048 -1.408892 0.248128 -0.891660 0.055451-2.519108 -2.075948 -1.236131 0.165487 -0.613999 0.078071-0.742666 -1.500171 -1.195109 0.146267 -0.463795 0.0994600.452773 -1.084888 -1.590560 0.106111 -0.441291 0.1005392.116782 -0.255695 -1.782442 0.028780 -0.294262 0.1218052.865172 -0.611280 -2.060820 0.072740 -0.202523 0.1175193.159354 -0.395367 -1.596294 0.021844 -0.123649 0.0956971.319783 -0.719194 -1.305698 0.090094 -0.352570 0.062764-1.595589 -1.347343 -1.734362 0.176143 -0.763698 0.026736-2.046723 -1.404897 -2.114730 0.168864 -0.809016 0.029583-2.416449 -1.767039 -1.842677 0.209363 -0.803420 0.047111-3.424553 -2.420186 -2.005551 0.278592 -0.945215 0.047142-2.571298 -2.935990 -1.655630 0.339163 -0.870867 0.069397-2.137251 -2.740387 -1.708373 0.302332 -0.887488 0.072468-1.293172 -1.801515 -1.772732 0.203882 -0.858672 0.0848570.330302 -1.160408 -1.862822 0.104085 -0.737031 0.096474-0.020083 -1.170268 -2.174372 0.110561 -0.858177 0.1083750.407872 -0.833183 -1.922472 0.068016 -0.808198 0.1273460.320861 -1.662424 -1.108439 0.159058 -0.726313 0.148071-0.737513 -2.399054 -0.978057 0.240859 -0.834991 0.136298-1.428975 -2.976454 -1.071586 0.296030 -0.899981 0.134842-1.091388 -2.978646 -1.694716 0.246770 -0.836091 0.133647-2.522392 -2.741063 -1.695435 0.204506 -0.968423 0.134433-3.453846 -2.949530 -1.911270 0.242779 -1.076772 0.139586-2.688515 -2.870907 -1.397745 0.228791 -0.915746 0.157665-2.036192 -2.970455 -1.399061 0.244517 -0.854787 0.162067-1.599079 -2.531618 -1.312829 0.228661 -0.804676 0.180486-0.299349 -1.831682 -1.244395 0.173309 -0.737083 0.1816350.278407 -1.272526 -1.916441 0.150557 -0.724126 0.1801321.578853 -0.501395 -2.215937 0.063502 -0.567852 0.1576950.656894 -1.019798 -2.044414 0.174568 -0.665347 0.118523-0.457169 -1.247340 -1.685269 0.248062 -0.769149 0.070171-1.059205 -1.679813 -1.531928 0.307832 -0.761054 0.013843-1.146373 -1.756549 -1.860337 0.319313 -0.725828 -0.034853-2.457333 -1.646381 -2.231735 0.312657 -0.890430 -0.069371-3.130583 -1.932476 -2.765449 0.352967 -0.983184 -0.069461-2.993293 -2.217701 -2.608788 0.385637 -0.930228 -0.031755-2.359665 -2.197619 -2.470295 0.373703 -0.827339 0.006771-1.534158 -1.986581 -2.482665 0.355113 -0.760642 0.035713-1.077468 -1.655086 -2.442264 0.327203 -0.740173 0.059989-0.714136 -1.341867 -2.817751 0.297730 -0.767402 0.059958-0.393706 -1.236758 -2.793483 0.296790 -0.779601 0.040154-0.532195 -1.166345 -2.873144 0.298243 -0.812939 0.004342-0.731533 -1.143074 -2.661400 0.303173 -0.845473 -0.043268-1.276137 -1.292059 -2.885782 0.318445 -0.963601 -0.109068-1.736178 -1.401963 -2.622070 0.321521 -1.010859 -0.145041-2.328710 -1.617566 -2.749657 0.324557 -1.074577 -0.176611-2.563207 -1.684489 -2.275033 0.294978 -1.063692 -0.194200-2.782100 -1.692868 -2.609218 0.267286 -1.159764 -0.219887-3.027973 -1.548561 -3.059069 0.216863 -1.238588 -0.219241-2.650074 -0.987732 -3.313800 0.108993 -1.227705 -0.208728-2.715656 -0.982955 -2.942438 0.076933 -1.207194 -0.195008-2.561335 -1.315500 -2.493933 0.097942 -1.190297 -0.198037-2.746016 -1.579672 -1.946481 0.109636 -1.225844 -0.208396-3.107942 -1.221455 -2.071466 0.064064 -1.301386 -0.229718-2.239534 -0.903560 -2.847687 -0.031577 -1.248825 -0.259089-2.503019 -0.763037 -2.375621 -0.071950 -1.204849 -0.250984-3.032646 -1.321857 -1.996306 -0.019312 -1.274854 -0.258080-3.848102 -2.040425 -2.207721 0.028260 -1.365974 -0.270704-4.775807 -2.007632 -2.244283 0.016371 -1.425081 -0.276469-3.537986 -1.828182 -1.546201 -0.056753 -1.181148 -0.259783-4.467081 -2.435810 -1.541737 0.021641 -1.293521 -0.262044-5.563135 -2.244095 -2.544331 -0.006331 -1.574536 -0.298756-5.753683 -2.203249 -2.301274 -0.002885 -1.545790 -0.280859-3.953363 -1.457293 -1.466190 -0.099664 -1.260244 -0.258041-3.314162 -1.633731 -2.253512 -0.107584 -1.247795 -0.279491-4.229688 -1.193255 -2.690227 -0.135825 -1.452607 -0.308145-3.553021 -0.656286 -1.123263 -0.202028 -1.292462 -0.291431-2.067026 -0.558509 -1.566185 -0.247722 -1.125522 -0.300989-3.309513 -0.470832 -2.996396 -0.274488 -1.290024 -0.328584-3.510266 -0.691461 -2.243203 -0.258114 -1.286123 -0.331607-3.366752 -0.963091 -1.446094 -0.237968 -1.231857 -0.337784-5.424264 -1.267343 -2.232926 -0.205991 -1.439071 -0.351012-4.914702 -1.449714 -2.031294 -0.209924 -1.331999 -0.346269-3.830250 -1.621814 -2.339554 -0.211323 -1.266949 -0.363773-4.812268 -1.468025 -2.307323 -0.214284 -1.309665 -0.343065-4.495699 -1.359944 -1.737202 -0.203215 -1.245840 -0.325939-3.795345 -1.496345 -2.640262 -0.190573 -1.263183 -0.353448-3.193351 -0.868247 -1.432497 -0.210346 -1.058991 -0.314899-2.808086 -0.618318 -1.988889 -0.220826 -1.116867 -0.354298-2.453663 -0.732206 -2.198131 -0.182310 -0.999445 -0.347798-3.245555 -0.785001 -2.000951 -0.124622 -1.095963 -0.366848-4.331959 -0.895657 -2.559098 -0.088519 -1.212386 -0.388267-4.331410 -1.063569 -2.010650 -0.025058 -1.117338 -0.378447-5.161144 -1.072646 -3.005915 -0.016790 -1.326477 -0.430759-5.391379 -1.404461 -2.545287 0.055470 -1.205213 -0.398089-5.087235 -1.268708 -2.477423 0.048641 -1.223586 -0.404480-5.503809 -1.198393 -2.815378 0.072159 -1.271476 -0.388523-4.954378 -0.928200 -2.500046 0.061319 -1.187386 -0.373313-3.851291 -0.771578 -3.233922 0.039492 -1.176798 -0.401294-3.987314 -0.268711 -2.882909 0.017616 -1.144975 -0.380782-3.479486 -0.715244 -3.539080 0.071310 -1.146300 -0.398426-2.803482 -0.314424 -2.937469 0.033471 -1.039426 -0.383916-4.231934 -0.464985 -3.530172 0.078087 -1.206493 -0.398021-4.016679 -0.601043 -3.169788 0.088978 -1.154984 -0.393599-4.156424 -1.010550 -3.647460 0.129003 -1.155169 -0.402000-5.166716 -0.975116 -3.394427 0.125485 -1.246051 -0.410649-5.493097 -1.035220 -3.184459 0.144038 -1.237716 -0.403590-4.917061 -0.995694 -3.101035 0.142041 -1.188457 -0.390111-5.209839 -0.949998 -4.047560 0.140367 -1.265089 -0.382511-4.816947 -0.968289 -2.595633 0.175248 -1.171524 -0.337262-3.648927 -1.157633 -2.954479 0.183650 -1.013457 -0.329416-4.622173 -0.213131 -3.557143 0.080932 -1.247271 -0.381716-4.626133 -0.443018 -3.489862 0.121266 -1.219814 -0.382022-3.923348 -0.037899 -3.766065 0.052559 -1.189027 -0.410775-3.693330 -0.063996 -3.239798 0.061962 -1.055263 -0.390155-4.654346 -0.231587 -3.509552 0.086209 -1.226113 -0.422639-4.931769 -0.718828 -2.545559 0.136486 -1.155766 -0.404468-4.760890 -0.538515 -3.419964 0.103351 -1.209181 -0.444490-4.273504 -0.706257 -3.077070 0.092993 -1.089054 -0.435405-5.004634 -0.606670 -3.428132 0.097053 -1.225875 -0.435692-5.034765 -0.567759 -3.197855 0.074722 -1.320624 -0.437036-4.693947 -0.662257 -3.642904 0.090601 -1.217414 -0.404407-4.107296 -0.668065 -3.277876 0.068990 -1.151407 -0.384283-3.684285 -0.798182 -3.238038 0.078638 -1.117154 -0.383531-4.721793 -0.656522 -3.230376 0.065851 -1.276707 -0.398706-4.639628 -0.740902 -3.548969 0.063861 -1.259478 -0.400142-4.408371 -0.530100 -3.245174 0.032559 -1.246049 -0.413405-4.523083 -0.832555 -3.305122 0.063557 -1.215508 -0.423614-4.720334 -0.729224 -2.836870 0.051877 -1.247829 -0.435800-4.437876 -0.998755 -2.953290 0.072038 -1.210235 -0.454446-4.709927 -0.873056 -2.786862 0.055218 -1.234854 -0.465593-4.897861 -0.938390 -3.162092 0.049464 -1.286599 -0.492892-5.099819 -1.043699 -2.716150 0.068981 -1.272437 -0.479087-4.953471 -1.228676 -2.991403 0.084055 -1.294244 -0.476417-4.942901 -1.286736 -2.736112 0.096631 -1.212249 -0.436450-4.567465 -1.619389 -2.553905 0.131099 -1.185172 -0.417630-5.230833 -1.583940 -2.967634 0.121675 -1.293508 -0.403129-4.323711 -1.519877 -2.490598 0.117839 -1.132090 -0.345290-4.438715 -1.557229 -3.320071 0.103227 -1.285345 -0.353833-4.508923 -1.521424 -2.756631 0.122502 -1.206551 -0.294172-4.304100 -1.699048 -3.080177 0.136014 -1.237288 -0.286949-4.282400 -1.440540 -3.266124 0.099763 -1.256214 -0.283734-4.184399 -1.508394 -2.887837 0.119599 -1.194308 -0.264818-4.461377 -1.711763 -3.442006 0.133425 -1.298257 -0.285584-5.076859 -1.651534 -3.540330 0.139311 -1.347949 -0.274653-4.644162 -1.893321 -2.923297 0.176138 -1.233614 -0.248980-4.809891 -2.023492 -3.201390 0.183064 -1.335005 -0.269200-5.335281 -1.903545 -3.645826 0.177787 -1.375413 -0.262330-4.684044 -1.805547 -3.224654 0.159456 -1.278144 -0.249021-4.753369 -2.051220 -3.154316 0.193691 -1.296704 -0.247458-5.046604 -1.967845 -3.663753 0.184345 -1.346164 -0.251409-4.663317 -1.644668 -3.383256 0.140800 -1.268029 -0.235320-4.387342 -1.920367 -3.164530 0.177180 -1.232739 -0.219349-4.512875 -2.037647 -3.350481 0.187765 -1.256939 -0.215338-4.630545 -1.793313 -3.654406 0.159315 -1.303518 -0.217209-4.634481 -1.732281 -3.580049 0.154764 -1.289238 -0.201467-4.027330 -1.824043 -3.068820 0.175745 -1.180491 -0.179165-4.187500 -2.033503 -3.095014 0.205990 -1.214364 -0.180688-4.509403 -1.946104 -3.625663 0.197471 -1.284761 -0.194094-4.387455 -1.645620 -3.481081 0.161033 -1.247674 -0.191625-4.080582 -1.697931 -3.141171 0.168959 -1.166712 -0.179086-4.181396 -1.894914 -3.248593 0.175854 -1.187616 -0.183053-4.370160 -1.786653 -3.477074 0.145013 -1.225667 -0.188277-4.416798 -1.596782 -3.572967 0.109838 -1.202012 -0.181590-4.111616 -1.540075 -3.322213 0.100412 -1.135454 -0.168846-4.005596 -1.855809 -3.072931 0.136196 -1.110858 -0.157184-4.467081 -1.907933 -3.175276 0.145811 -1.199132 -0.168338-4.508451 -1.690421 -3.379694 0.119006 -1.232659 -0.181318-4.014627 -1.402909 -3.681196 0.082742 -1.188555 -0.189788-3.690879 -1.151420 -3.732068 0.048020 -1.142000 -0.198706-3.675981 -1.218426 -3.641304 0.057897 -1.140481 -0.208561-3.872056 -1.366962 -3.453208 0.085670 -1.150538 -0.205803-3.729966 -1.520156 -3.041899 0.104442 -1.097687 -0.193523-3.591945 -1.644879 -2.946849 0.118347 -1.086132 -0.193520-3.703544 -1.604524 -3.255871 0.099520 -1.122043 -0.200681-3.746140 -1.158185 -3.572349 0.027441 -1.154424 -0.203778-3.595786 -1.044791 -3.553089 -0.006803 -1.142696 -0.196446-3.588755 -1.008638 -3.601634 -0.030049 -1.136925 -0.186988-3.408318 -0.991405 -3.365013 -0.048480 -1.107833 -0.173638-3.178590 -1.187489 -2.971048 -0.040648 -1.064417 -0.157034-3.133321 -1.071275 -2.912686 -0.063377 -1.067410 -0.153277-2.997424 -0.843373 -2.995658 -0.111621 -1.064537 -0.155738-2.866205 -0.715998 -3.055142 -0.138682 -1.065866 -0.158408-2.970857 -0.627617 -3.162414 -0.165382 -1.100886 -0.171474-3.197310 -0.796777 -2.990972 -0.156470 -1.129434 -0.174068-3.134634 -1.120241 -2.240302 -0.124000 -1.093018 -0.157619-3.460409 -1.240155 -2.384084 -0.125417 -1.146822 -0.161101-3.180588 -0.963588 -2.566974 -0.191670 -1.129669 -0.160603-3.072770 -0.794710 -2.841183 -0.238427 -1.165150 -0.168285-3.148352 -0.773290 -2.701972 -0.261843 -1.167720 -0.155344-3.069281 -0.941021 -2.229878 -0.266970 -1.123047 -0.128147-3.094544 -1.106673 -2.130795 -0.268919 -1.120923 -0.117047-2.868991 -0.912297 -2.090332 -0.325249 -1.108692 -0.110131-2.809560 -0.609998 -2.271208 -0.387239 -1.143102 -0.116800-2.769438 -0.462732 -2.497536 -0.423802 -1.157278 -0.122606-2.802507 -0.349010 -2.497095 -0.448093 -1.172081 -0.127583-2.719016 -0.415428 -1.931621 -0.441272 -1.151095 -0.123365-2.785011 -0.519073 -1.804412 -0.436720 -1.163532 -0.126692-2.950742 -0.333368 -1.688065 -0.461796 -1.214291 -0.144803-2.883416 -0.356583 -1.722222 -0.462578 -1.211622 -0.149641-2.880004 -0.323748 -1.809309 -0.471240 -1.221290 -0.156863-2.891278 -0.306535 -1.800606 -0.478195 -1.202037 -0.158229-2.750027 -0.337945 -1.707526 -0.477690 -1.177920 -0.161696-2.685740 -0.396881 -1.611098 -0.473447 -1.166827 -0.170777-2.847523 -0.435392 -1.471721 -0.477696 -1.159232 -0.182561-2.903647 -0.422073 -1.216839 -0.487276 -1.141559 -0.191377-2.996707 -0.360919 -1.369174 -0.504712 -1.139649 -0.201520-2.942656 -0.347497 -1.290373 -0.514024 -1.108759 -0.202123-2.948869 -0.380027 -1.503790 -0.507311 -1.119275 -0.210398-2.996734 -0.428650 -1.812831 -0.498693 -1.118917 -0.216427-2.976129 -0.408092 -1.513852 -0.481214 -1.093476 -0.211039-3.121122 -0.471650 -1.269242 -0.448450 -1.102400 -0.215849-3.149429 -0.425570 -1.432485 -0.441372 -1.120674 -0.232290-2.909056 -0.272116 -1.365814 -0.441536 -1.095026 -0.241362-2.693048 -0.342575 -1.186034 -0.421060 -1.063358 -0.248182-2.863815 -0.370191 -1.142791 -0.411059 -1.068265 -0.258760-2.951707 -0.211907 -1.112064 -0.422768 -1.084187 -0.276934-2.896417 -0.307621 -1.081562 -0.413665 -1.070629 -0.285219-2.975127 -0.275307 -1.345671 -0.426847 -1.064063 -0.292033-3.010763 -0.150295 -1.447229 -0.455452 -1.060805 -0.290967-2.902414 -0.247194 -1.199016 -0.454500 -1.035066 -0.280603-3.092829 -0.188490 -1.219408 -0.473730 -1.045779 -0.277017-2.996603 0.032379 -1.245794 -0.517661 -1.020406 -0.276140-2.572708 -0.083629 -1.366427 -0.521115 -0.970875 -0.281396-2.589284 -0.072217 -1.222574 -0.530093 -0.971754 -0.286001-2.721774 0.121172 -1.116047 -0.545817 -0.998717 -0.294160-2.767600 -0.032613 -1.153869 -0.522091 -1.017271 -0.302605-2.776207 0.020998 -1.032566 -0.537797 -1.020204 -0.311873-2.887191 0.003959 -1.011147 -0.521180 -1.051260 -0.322435-2.962431 -0.211909 -0.841842 -0.502659 -1.053095 -0.327364-2.996827 -0.257105 -0.928987 -0.501361 -1.063118 -0.332883-3.030015 -0.186963 -0.893302 -0.512101 -1.062844 -0.331834-3.009555 -0.070448 -0.974371 -0.531876 -1.066418 -0.330371-2.972143 -0.115217 -1.086478 -0.538280 -1.069672 -0.326556-2.937600 -0.045757 -1.087283 -0.560653 -1.055645 -0.319638-2.912274 -0.007169 -1.023774 -0.574343 -1.037290 -0.314474-2.900482 0.005468 -0.943487 -0.584881 -1.032374 -0.315439-2.870600 0.118230 -0.926916 -0.604746 -1.025021 -0.317864-2.856628 0.148890 -1.048301 -0.612266 -1.028859 -0.326415-2.729670 0.200680 -0.993615 -0.626654 -1.004203 -0.330732-2.803364 0.161399 -0.919234 -0.615442 -1.008343 -0.337041-2.762372 0.185700 -0.822063 -0.619800 -0.995311 -0.342897-2.652511 0.320800 -0.797227 -0.631085 -0.984211 -0.350992-2.701904 0.223196 -0.827125 -0.621419 -0.986075 -0.356387-2.647223 0.259761 -0.840814 -0.630218 -0.978411 -0.356467-2.926351 0.200149 -0.757560 -0.621505 -1.008025 -0.345291-2.958744 0.102509 -0.692701 -0.614102 -1.009573 -0.334863-2.814270 -0.011761 -0.638598 -0.606897 -0.976875 -0.320754-2.739582 0.004702 -0.790400 -0.622679 -0.957757 -0.315277-2.834720 0.195972 -0.779587 -0.652115 -0.975001 -0.319446-2.821363 0.138066 -0.741485 -0.642100 -0.980994 -0.322482-2.908020 0.239421 -0.716601 -0.650346 -0.974949 -0.322272-2.779209 0.254473 -0.628062 -0.643225 -0.961696 -0.326505-2.667049 0.191780 -0.511094 -0.628540 -0.960975 -0.336466-2.740339 0.213912 -0.655274 -0.633555 -0.955245 -0.344217-2.589774 0.210709 -0.344491 -0.620647 -0.916555 -0.342086-2.806724 -0.045333 -0.214490 -0.580818 -0.946195 -0.349838-3.120925 0.121017 -0.457821 -0.593017 -1.016268 -0.367307-2.805879 0.260396 -0.405951 -0.612937 -0.966900 -0.357101-2.453407 0.276299 -0.690354 -0.622188 -0.900561 -0.341285-2.592031 0.666769 -0.718340 -0.667764 -0.909486 -0.332393-2.592072 0.296883 0.161119 -0.600881 -0.877187 -0.303856-2.330999 -0.426241 0.278331 -0.526896 -0.835390 -0.296081-2.547721 0.119958 -0.562154 -0.597250 -0.884928 -0.310006-2.363097 0.626247 -0.387250 -0.657357 -0.865043 -0.311890-2.142645 0.004512 -0.336926 -0.596991 -0.836314 -0.311757-2.574125 0.247775 -0.610213 -0.607945 -0.938041 -0.325531-2.525230 0.130110 -0.339724 -0.599166 -0.888944 -0.314173-2.406391 -0.048106 0.726912 -0.551158 -0.830510 -0.290138-2.569119 -0.571673 0.153482 -0.503450 -0.929505 -0.314466-2.871993 0.154897 -0.299324 -0.597997 -0.993158 -0.328494-1.853339 0.117476 0.572302 -0.607133 -0.823178 -0.313362-2.250133 0.140488 -0.017859 -0.622550 -0.993870 -0.355706-2.706400 0.301966 0.069099 -0.646164 -0.971386 -0.337816-2.402355 0.002296 -0.361264 -0.630996 -0.915531 -0.342644-2.378252 0.325027 0.062221 -0.681972 -0.933284 -0.342429-2.509493 0.567182 0.379277 -0.698762 -0.897592 -0.326209-2.464637 0.787295 -0.533705 -0.764238 -0.933323 -0.352947-2.216605 0.762899 -0.507014 -0.752971 -0.936399 -0.351231-2.504897 0.408185 0.160314 -0.705970 -0.847356 -0.317226-2.306285 0.815231 0.038910 -0.751288 -0.963497 -0.354841-2.271890 -0.462888 0.675260 -0.569550 -0.816464 -0.307411-2.118972 0.394406 0.475190 -0.679189 -0.857555 -0.331606-2.188833 -0.000301 0.833755 -0.628049 -0.922936 -0.352250-2.656192 0.045470 0.448193 -0.589898 -0.967017 -0.348300-2.182681 0.580808 0.947054 -0.686150 -0.929312 -0.353991-2.198914 0.225183 0.794015 -0.643191 -0.969897 -0.358634-2.449522 0.526596 1.173820 -0.693129 -0.964868 -0.359317-2.445721 0.180097 1.116396 -0.661116 -0.948774 -0.355825-2.457605 -0.008382 0.906375 -0.677878 -0.939742 -0.345520-2.097400 1.047542 2.035521 -0.953281 -0.982179 -0.392859-1.631238 1.475300 11.746005 -1.434538 -0.987483 -0.409704-1.911067 0.430995 17.165042 -1.530261 -1.150813 -0.439024-2.753610 -2.132826 27.936192 -1.526114 -1.077241 -0.369932-3.159669 -3.625599 35.118329 -1.495098 -1.023677 -0.335159-3.467916 -4.871954 37.276987 -1.147679 -0.942575 -0.316209-4.992264 -3.605956 34.677117 -0.997018 -0.908576 -0.326556-5.174225 -0.781816 28.473337 -0.971201 -0.837824 -0.378530-5.165008 0.169863 20.170123 -0.920004 -1.044483 -0.455345-3.563778 1.192152 14.350528 -0.889725 -0.943895 -0.421441-2.354940 0.145824 12.210731 -0.623487 -0.654854 -0.323767-2.352506 -0.950757 9.750009 -0.392470 -0.666277 -0.285000-2.762793 -1.483284 8.094592 -0.241847 -0.734620 -0.253178-2.746231 -1.528871 6.124960 -0.198117 -0.744636 -0.250848-2.916010 -0.787423 3.059030 -0.296345 -0.937430 -0.296132-3.872370 -0.479265 0.650353 -0.292719 -1.063921 -0.296114-3.844702 -1.010233 0.996143 -0.209478 -0.962655 -0.253671-2.936092 -1.642182 0.909132 -0.101785 -0.838825 -0.230712-2.472373 -1.445717 0.029371 -0.101224 -0.702357 -0.212881-1.394834 -0.852301 -0.163023 -0.152863 -0.611970 -0.225260-1.721805 -0.875097 -0.849829 -0.126275 -0.759216 -0.261789-2.109731 -0.408918 -2.079006 -0.139202 -0.833675 -0.287984-2.728245 -0.855671 -2.140785 -0.037015 -0.916567 -0.291965-3.223314 -1.705078 -1.264066 0.113785 -0.907478 -0.261531-3.016318 -1.797582 -1.117174 0.131847 -0.929578 -0.273472-3.433462 -1.615178 -2.014323 0.115822 -1.008381 -0.287044-3.057626 -1.031044 -2.559931 0.025324 -0.986049 -0.282849-2.305581 -0.852826 -2.166045 -0.029069 -0.910127 -0.266589-2.617947 -1.354798 -2.140695 -0.003110 -0.907587 -0.231521-3.003094 -1.400210 -2.346058 -0.030293 -0.955719 -0.218015-2.555739 -1.326469 -2.453459 -0.081947 -0.917415 -0.204934-1.906539 -1.042215 -2.295223 -0.146532 -0.818821 -0.190299-2.156576 -0.807320 -2.489376 -0.207027 -0.883291 -0.202789-2.528875 -1.134202 -2.100206 -0.178421 -0.885206 -0.187741-2.589916 -1.413397 -1.510770 -0.161917 -0.849411 -0.175413-2.578868 -1.581336 -1.454939 -0.166164 -0.854770 -0.174385-2.650390 -1.357851 -1.269109 -0.211649 -0.818187 -0.157658-2.179494 -0.938774 -1.460909 -0.296241 -0.790270 -0.157374-2.140354 -0.579994 -1.776095 -0.346574 -0.829352 -0.160217-2.221914 -0.628710 -1.422640 -0.340813 -0.808609 -0.140587-2.084858 -0.799927 -1.050893 -0.314401 -0.785682 -0.133724-2.092973 -1.032837 -0.833980 -0.278606 -0.762834 -0.125180-2.483690 -0.981737 -0.781800 -0.275275 -0.820950 -0.134178-2.715667 -0.581252 -0.977688 -0.318436 -0.875558 -0.152708-2.138972 -0.255201 -1.176296 -0.361434 -0.796377 -0.152669-2.474029 -0.247112 -1.282611 -0.357509 -0.817066 -0.150135-2.381396 -0.422904 -0.830163 -0.320251 -0.763626 -0.131438-2.078719 -0.375005 -0.482529 -0.312544 -0.675634 -0.109654-2.066599 -0.225538 -0.706441 -0.329353 -0.687834 -0.113650-2.329340 0.174229 -1.069348 -0.367687 -0.757961 -0.125531-1.965866 0.157500 -1.040611 -0.357236 -0.721731 -0.119039-1.432224 -0.045595 -0.874686 -0.334741 -0.612066 -0.101417-1.752636 -0.091014 -0.936807 -0.319347 -0.648689 -0.107755-1.871866 -0.093613 -0.400560 -0.315407 -0.655097 -0.109950-1.786528 0.097077 -0.489544 -0.335992 -0.670627 -0.119191-1.663001 0.241497 -0.766792 -0.367494 -0.646451 -0.117412-1.350977 0.224142 -0.732528 -0.385840 -0.606444 -0.113414-1.679701 0.117670 -0.697226 -0.375650 -0.657002 -0.112034-2.213218 0.131549 -0.229912 -0.368913 -0.703802 -0.101530-2.209986 -0.012651 -0.263261 -0.366739 -0.705614 -0.098680-1.913836 -0.080759 -0.488798 -0.371570 -0.687562 -0.094672-1.571315 0.271894 -0.465747 -0.425255 -0.668012 -0.089528-2.039802 0.286016 -0.439597 -0.431512 -0.724993 -0.085821-1.948251 0.306689 -0.462890 -0.448133 -0.724513 -0.079030-1.554765 0.135134 -0.251184 -0.445594 -0.662684 -0.063919-1.384740 0.114722 -0.008174 -0.447768 -0.634153 -0.049262-1.613492 -0.017498 -0.055412 -0.454705 -0.669325 -0.052410-1.702096 0.175186 -0.116085 -0.483427 -0.696869 -0.054374-1.838443 0.179484 -0.122775 -0.488325 -0.735000 -0.055509-1.735714 0.018407 -0.166831 -0.481402 -0.724890 -0.047399-1.462410 0.010844 0.043242 -0.486625 -0.658034 -0.030415-1.243486 0.147870 0.005773 -0.512618 -0.644668 -0.028435-1.562332 0.200792 0.004056 -0.518706 -0.691109 -0.028243-1.546042 0.372300 -0.072984 -0.537266 -0.689198 -0.025265-1.219155 0.394854 -0.174186 -0.547821 -0.640144 -0.019102-0.973344 0.400123 -0.196442 -0.554868 -0.601693 -0.017802-1.465968 0.396780 -0.080106 -0.542098 -0.649503 -0.025857-2.023887 0.289087 -0.167149 -0.517757 -0.714414 -0.038449-1.482353 0.427024 -0.272878 -0.532583 -0.647500 -0.047565-1.157596 0.559218 -0.233468 -0.545315 -0.586654 -0.052564-1.459228 0.667164 -0.480244 -0.538806 -0.629090 -0.065749-1.860971 0.496474 -0.423288 -0.500988 -0.682597 -0.075321-1.539408 0.484132 -0.341149 -0.494495 -0.624550 -0.077427-1.985503 0.436313 -0.652979 -0.489276 -0.675399 -0.092009-1.358299 0.836252 -0.819757 -0.544359 -0.600269 -0.103494-1.189115 0.809800 -0.854298 -0.556911 -0.577098 -0.113507-1.728459 0.760188 -1.185592 -0.554083 -0.659810 -0.127417-1.965601 0.706660 -0.876524 -0.546272 -0.674404 -0.123761-2.146197 0.537861 -0.624378 -0.533557 -0.711296 -0.126195-1.238146 0.856491 -0.871457 -0.605699 -0.619644 -0.129429-1.252409 1.009578 -1.065874 -0.654785 -0.628101 -0.134543-2.012693 1.009645 -1.359019 -0.657451 -0.804542 -0.157612-2.373145 0.916024 -1.200057 -0.672058 -0.889589 -0.157688-1.032768 1.089446 -1.145468 -0.733931 -0.709095 -0.119027-1.318574 1.146696 -1.286853 -0.755730 -0.771262 -0.121089-2.073495 1.121197 -1.239734 -0.749366 -0.941900 -0.134735-1.938874 1.052942 -1.099539 -0.765965 -0.906780 -0.130097-1.672430 1.144580 -1.077355 -0.786721 -0.845173 -0.118003-1.810379 0.981615 -0.652596 -0.769052 -0.859856 -0.121110-1.930295 0.848327 -0.761740 -0.772294 -0.917617 -0.144756-2.408691 0.872321 -1.070211 -0.755809 -0.969175 -0.148621-2.141059 1.133213 -1.296379 -0.795868 -0.932853 -0.152243-1.458813 1.130417 -1.438587 -0.810857 -0.851248 -0.150398-1.646654 1.121264 -1.387840 -0.784361 -0.857860 -0.143589-2.056693 1.087781 -0.879953 -0.750365 -0.888594 -0.138125-1.526207 0.781287 -0.825097 -0.709196 -0.812000 -0.127751-1.116005 0.986176 -0.465346 -0.721189 -0.753198 -0.122374-1.917004 0.975031 -0.884594 -0.690434 -0.924655 -0.159985-1.401506 1.207674 -1.157975 -0.721379 -0.894287 -0.170926-1.603353 1.149924 -1.214710 -0.693726 -0.941003 -0.178989-1.023330 1.247515 -1.617587 -0.721448 -0.892453 -0.179984-1.221468 1.277484 -0.773500 -0.701905 -0.859333 -0.161217-1.824446 1.334551 -0.656182 -0.704627 -0.955659 -0.180115-0.788136 0.859501 -0.805832 -0.679945 -0.819231 -0.165136-1.642960 1.252287 -0.810998 -0.713954 -0.930011 -0.181822-1.487627 1.449107 -0.949662 -0.769306 -0.963211 -0.206560-2.003828 1.326807 -1.077738 -0.747124 -1.036397 -0.213779-1.583647 1.413720 -1.121722 -0.792794 -0.974783 -0.209144-1.212226 1.100907 -0.992318 -0.762559 -0.932579 -0.198463-2.069301 1.265645 -0.587275 -0.775404 -1.014353 -0.203071-1.380825 0.993530 -0.200000 -0.771204 -0.939641 -0.197831-2.053797 0.600988 -0.324744 -0.709649 -1.028145 -0.208538-1.863379 0.811314 -0.329306 -0.756024 -1.031398 -0.226630-1.610282 1.078733 -0.499738 -0.789799 -1.033153 -0.243284-1.963741 1.231160 -0.745992 -0.811816 -1.084262 -0.258126-1.796355 1.174707 -0.860021 -0.799564 -1.057069 -0.255828-1.868312 1.114050 -0.537247 -0.778753 -1.018636 -0.236767-1.184488 0.683929 -0.425018 -0.726256 -0.897989 -0.214119-1.435209 1.022284 0.054850 -0.736434 -0.906477 -0.214370-1.687578 1.190334 -0.570005 -0.752896 -0.958648 -0.241109-1.359744 1.518173 -1.083685 -0.784326 -0.936018 -0.257707-1.503031 1.772888 -1.256110 -0.803145 -0.950015 -0.274838-1.297286 1.766611 -1.128358 -0.772986 -0.873784 -0.263301-1.506962 1.672061 -1.076406 -0.737620 -0.869061 -0.263361-2.077380 1.346183 -0.782798 -0.645968 -0.928316 -0.258498-1.478671 1.353840 -0.861017 -0.618754 -0.824079 -0.237029-1.076249 1.460701 -0.843225 -0.605114 -0.768677 -0.224702-1.118048 1.674566 -1.387987 -0.598349 -0.823511 -0.236146-1.803270 1.627624 -1.536542 -0.554181 -0.942825 -0.239433-2.062098 1.195669 -1.660176 -0.445789 -0.998050 -0.216164-1.548269 1.317947 -1.231191 -0.434343 -0.894709 -0.181257-1.052530 1.059948 -1.385819 -0.371478 -0.868500 -0.162253-1.338634 1.264247 -1.449436 -0.360763 -0.987716 -0.169162-1.483599 1.223251 -1.590727 -0.328996 -1.028581 -0.158348-1.185136 1.207754 -1.520952 -0.307955 -0.972241 -0.133202-1.354309 1.206280 -1.302653 -0.283820 -0.997328 -0.128797-1.359011 0.863313 -1.668702 -0.233133 -1.050955 -0.134807-1.312857 1.282916 -1.538621 -0.253812 -1.014287 -0.106214-1.233221 1.058279 -1.497692 -0.223668 -0.993533 -0.095711-1.118829 0.726412 -1.597515 -0.185188 -0.989493 -0.091295-1.229625 0.715359 -1.577341 -0.171321 -1.010885 -0.087968-1.983147 0.709633 -1.546231 -0.140587 -1.102497 -0.088648-1.942126 0.688296 -1.668808 -0.118043 -1.111823 -0.088139-1.537512 0.583835 -1.652577 -0.091855 -1.070204 -0.080763-1.419404 0.541541 -1.672712 -0.071146 -1.044385 -0.070922-1.577554 0.357075 -1.564599 -0.021979 -1.054622 -0.060568-1.824525 -0.000738 -1.075293 0.038648 -1.072079 -0.049839-2.080042 -0.142927 -1.021182 0.073621 -1.113164 -0.048587-2.071200 -0.275471 -1.233085 0.091755 -1.094821 -0.038971-2.335683 -0.318605 -1.451127 0.100064 -1.133217 -0.039816-2.376691 -0.434834 -1.415939 0.117072 -1.138393 -0.034218-2.357656 -0.722481 -1.244550 0.155404 -1.088364 -0.011758-2.575774 -1.021618 -1.129001 0.210340 -1.081514 0.007624-2.614427 -1.200992 -1.059341 0.239138 -1.094434 0.009343-2.785883 -1.378786 -1.300521 0.269735 -1.153804 -0.000230-2.742082 -1.157340 -1.466675 0.247665 -1.155753 -0.003527-3.613902 -1.299416 -1.641899 0.295093 -1.268353 -0.007317-3.111895 -1.860907 -0.976106 0.375163 -1.165304 0.019906-2.943403 -2.097762 -0.468958 0.422109 -1.087283 0.044182-2.719036 -2.531950 -0.499422 0.475959 -1.052941 0.053209-2.923813 -2.379689 -0.870440 0.460732 -1.155482 0.029915-3.684629 -2.252997 -1.327571 0.433441 -1.269572 0.011671-3.261781 -2.277740 -1.358299 0.432545 -1.172983 0.037026-2.692274 -2.529931 -0.930063 0.453065 -1.018254 0.072902-2.545819 -3.207023 -0.744385 0.516600 -1.017794 0.077166-3.569337 -3.170714 -1.047010 0.512736 -1.164847 0.062353-3.413395 -2.866481 -1.250320 0.468898 -1.116809 0.069702-2.012367 -2.943280 -1.331936 0.457483 -0.937903 0.082430-3.161831 -2.985636 -1.309544 0.486928 -1.114557 0.066701-3.912371 -3.547227 -1.700828 0.559418 -1.251799 0.051939-3.140827 -3.086984 -0.979833 0.521841 -1.099303 0.076517-2.558599 -3.570489 -0.609250 0.562494 -1.020262 0.084848-3.304364 -3.362067 -1.026941 0.554748 -1.180475 0.061077-3.089149 -3.242608 -1.265171 0.500199 -1.187401 0.045572-2.851869 -2.917974 -1.310426 0.456824 -1.180527 0.044834-3.826973 -3.808752 -0.994220 0.533856 -1.287166 0.058936-3.473483 -3.457688 -0.957402 0.466901 -1.243961 0.063651-3.462153 -3.923997 -0.976941 0.494911 -1.228764 0.082348-3.604201 -3.052684 -0.703280 0.376429 -1.245201 0.093474-2.521198 -3.546644 -0.468353 0.373333 -1.073323 0.121849-3.685080 -3.715090 -1.165441 0.305282 -1.296306 0.093349-3.488900 -3.971709 -0.723627 0.209911 -1.238506 0.100025-2.984130 -4.644443 0.018780 0.192827 -1.059887 0.131488-3.671920 -5.478360 -0.640625 0.191756 -1.236013 0.090661-3.602146 -5.647850 -0.234779 0.122111 -1.183499 0.092571-3.853930 -5.907257 0.350024 0.107891 -1.116079 0.115364-2.970452 -6.082445 0.300373 0.043133 -1.052819 0.100849-3.787324 -6.290233 -0.128260 0.029334 -1.139478 0.093487-3.459706 -5.902942 -0.139869 -0.081867 -1.095626 0.089548-3.200659 -6.130162 -0.030686 -0.098132 -1.012448 0.098373-3.624555 -6.094169 -0.350605 -0.138690 -1.045772 0.090803-3.157230 -5.873786 -0.623072 -0.223547 -0.987186 0.076126-3.405079 -6.102905 -0.120521 -0.214049 -0.929008 0.095318-4.042203 -6.605202 -0.538319 -0.209756 -1.052457 0.066914-4.134572 -6.618946 -0.452243 -0.243343 -1.027159 0.061525-3.975978 -6.830380 0.206817 -0.256857 -0.878085 0.086767-3.432293 -7.251121 -0.105494 -0.281386 -0.862439 0.059178-4.167085 -7.521183 -0.017103 -0.268054 -0.904938 0.060869-5.068315 -7.639277 -0.242590 -0.273215 -1.027365 0.047906-3.971983 -7.968862 0.241966 -0.250247 -0.832841 0.067614-4.100654 -7.758870 -0.002537 -0.283834 -0.820990 0.070027-4.867407 -8.106719 -0.461188 -0.249414 -0.947144 0.057727-4.136021 -7.616597 -0.120719 -0.334636 -0.791834 0.071694-4.950413 -7.992325 -0.329146 -0.335425 -0.903348 0.054972-5.037711 -8.117354 -0.369865 -0.366533 -0.880104 0.053307-4.281518 -8.389654 -0.003125 -0.408750 -0.692145 0.067348-5.454653 -8.821770 0.241666 -0.415181 -0.873702 0.038572-5.347623 -9.163935 -0.152356 -0.459180 -0.883101 0.011091-5.032319 -9.080116 0.386396 -0.549684 -0.753152 0.024635-5.407723 -9.401439 0.603178 -0.574760 -0.819774 0.012962-5.501995 -10.037885 0.468638 -0.597158 -0.875799 0.002354-5.193886 -9.324008 0.608548 -0.774069 -0.847093 -0.000030-4.946125 -9.812321 0.518369 -0.813388 -0.783167 0.013899-4.853563 -9.980286 1.057651 -0.888022 -0.758149 0.021302-5.440858 -10.389982 1.033594 -0.951268 -0.897074 -0.013755-5.819912 -10.295911 0.992704 -1.065251 -0.901685 -0.026530-5.157621 -10.245967 1.454382 -1.180094 -0.775537 -0.036739-4.801349 -10.578978 2.053295 -1.248033 -0.690808 -0.039103-5.367188 -11.375731 2.817103 -1.247831 -0.682815 -0.036473-5.710618 -11.734902 2.858485 -1.318072 -0.746541 -0.077643-5.723053 -11.376309 3.004544 -1.463714 -0.707943 -0.117865-5.609353 -11.437138 3.032023 -1.641066 -0.633673 -0.196838-5.774117 -11.814554 3.689307 -1.649723 -0.597251 -0.210027-6.518525 -12.365692 4.391567 -1.655806 -0.661827 -0.243057-6.992769 -12.129490 4.710446 -1.763246 -0.694370 -0.280318-6.655562 -11.716494 4.983145 -1.873414 -0.599427 -0.296606-6.321607 -11.812703 5.786615 -1.906323 -0.522398 -0.299646-6.971723 -11.413548 6.137330 -1.985321 -0.625595 -0.322386-6.816866 -10.883985 6.388008 -2.103322 -0.586425 -0.341936-5.819016 -10.465221 7.392078 -2.206017 -0.345889 -0.330929-6.141998 -10.260955 7.853472 -2.273855 -0.397010 -0.358328-6.843158 -10.513781 8.356169 -2.288903 -0.407434 -0.373783-6.293104 -9.797227 9.995400 -2.373456 -0.166712 -0.356550-6.449808 -9.981304 9.922515 -2.373488 -0.209048 -0.394894-7.003961 -10.160917 10.618318 -2.338535 -0.162438 -0.375960-7.014751 -9.925093 12.057271 -2.331175 -0.090233 -0.359132-7.840592 -10.067638 12.323980 -2.277618 -0.131549 -0.348182-6.705146 -9.272373 13.525620 -2.327167 0.146506 -0.319630-6.274876 -9.272934 13.128332 -2.307054 0.150752 -0.342981-7.407128 -8.718379 13.365130 -2.308740 0.054298 -0.339403-7.008682 -8.546516 14.653190 -2.259366 0.207027 -0.318217-6.005245 -8.658126 15.130353 -2.217070 0.350493 -0.308435-7.176802 -8.059681 16.095999 -2.198349 0.319869 -0.284624-7.170608 -8.157141 15.952403 -2.155050 0.211104 -0.307604-7.420125 -8.011573 16.650195 -2.116919 0.213254 -0.286322-7.939523 -7.856811 17.614293 -2.061257 0.157192 -0.263760-6.672608 -7.654906 17.459517 -2.046211 0.229281 -0.245866-7.109002 -7.590305 18.180720 -1.965208 0.221692 -0.191468-6.416736 -7.119451 18.154885 -1.991750 0.078856 -0.202169-7.189223 -7.231972 18.225222 -1.921765 -0.033758 -0.161414-6.323829 -7.235833 18.839176 -1.885272 0.063172 -0.112595-5.824002 -6.945227 18.729613 -1.900667 -0.126098 -0.129560-5.944242 -6.948049 18.816247 -1.835768 -0.200771 -0.085671-5.049607 -7.015032 19.141980 -1.789437 -0.217560 -0.059454-4.914861 -7.012685 18.674979 -1.746566 -0.400378 -0.046991-4.180925 -6.778358 18.750515 -1.738741 -0.340474 -0.002398-3.362780 -6.481970 18.881258 -1.741840 -0.472702 -0.009612-3.519769 -6.613269 17.901964 -1.682673 -0.618159 0.003372-2.787357 -6.131930 17.629535 -1.705011 -0.574855 0.022321-2.087610 -6.081217 17.910015 -1.643970 -0.575784 0.032802-2.407824 -6.431795 17.274733 -1.521159 -0.683142 0.046861-3.290015 -6.109737 16.328803 -1.467602 -0.900874 0.030148-1.430504 -5.983551 16.946542 -1.404876 -0.635298 0.066167-2.112654 -5.896425 15.748571 -1.326195 -0.818083 0.055825-2.068882 -5.307888 14.265161 -1.331822 -0.928585 0.030122-1.536914 -5.036229 14.401747 -1.276517 -0.870563 0.055782-1.846986 -5.227685 13.673610 -1.159223 -0.924329 0.071206-0.554133 -4.457927 12.624357 -1.157025 -0.826904 0.074366-1.311002 -4.554594 11.748344 -1.106110 -0.994399 0.059795-2.087773 -4.201093 10.593019 -1.084055 -1.105618 0.057179-1.156816 -3.989122 10.572693 -1.074492 -0.999379 0.065431-0.915843 -4.573428 10.297180 -0.952776 -0.911924 0.098896-1.857779 -4.624823 9.238933 -0.904824 -1.064058 0.091420-1.439980 -4.546802 8.827143 -0.876939 -1.079192 0.083937-0.759873 -4.102578 7.975199 -0.904346 -1.017348 0.078412-0.713257 -3.679764 6.644541 -0.924740 -1.055642 0.070935-0.678062 -3.763362 6.423310 -0.862563 -1.039867 0.090233-0.830497 -3.849656 5.918907 -0.793154 -1.074421 0.096203-0.660785 -3.652237 5.406025 -0.762479 -1.044129 0.101483-0.284165 -3.686128 5.327356 -0.710189 -0.976737 0.108266-0.455293 -3.420047 4.028156 -0.700157 -1.065674 0.074744-0.745386 -2.961501 3.275515 -0.703231 -1.130837 0.052928-0.860222 -3.132443 3.021843 -0.632237 -1.125447 0.052969-0.710320 -3.123658 2.141755 -0.600751 -1.121055 0.040725-0.622593 -3.078465 2.070432 -0.571103 -1.074272 0.047556-0.613228 -3.106621 1.861743 -0.530830 -1.091478 0.038509-0.641581 -2.906587 1.500949 -0.525139 -1.105732 0.030785-0.570631 -2.898293 1.209707 -0.500471 -1.093916 0.031221-0.797863 -3.088652 1.075862 -0.446718 -1.132557 0.027683-0.970247 -3.114685 0.868237 -0.422245 -1.172443 0.015981-1.078411 -2.965159 0.943488 -0.413582 -1.170111 0.008588-1.022415 -2.977052 0.672719 -0.394153 -1.180807 -0.007870-1.256963 -2.693711 0.377635 -0.398755 -1.214185 -0.023307-1.322569 -2.665573 0.567264 -0.382760 -1.218060 -0.027831-1.541603 -2.857510 0.782422 -0.329174 -1.234515 -0.027559-1.640736 -2.811755 0.765123 -0.303229 -1.235905 -0.027686-1.585555 -2.772564 1.049941 -0.281655 -1.224577 -0.026634-2.003287 -2.901614 0.929603 -0.247103 -1.273224 -0.031194-1.939123 -2.891674 1.174213 -0.249126 -1.231426 -0.029812-1.943948 -3.031817 1.041801 -0.249791 -1.216623 -0.039341-2.323008 -3.201271 1.353918 -0.245225 -1.238182 -0.048454-3.081138 -3.542325 1.581934 -0.214497 -1.323613 -0.068043-3.087290 -3.707677 1.708076 -0.202085 -1.272041 -0.079456-2.749235 -3.842455 2.329551 -0.185376 -1.185078 -0.082511-3.032067 -3.995224 2.646537 -0.155683 -1.200112 -0.090287-3.608931 -4.137464 2.666642 -0.136043 -1.257583 -0.098577-3.464443 -4.049593 2.850554 -0.162098 -1.224016 -0.101298-2.923348 -3.948911 2.890957 -0.207596 -1.132147 -0.102664-3.134110 -3.876687 3.069701 -0.240092 -1.151108 -0.105698-3.813245 -4.215092 3.470422 -0.213868 -1.233298 -0.102436-3.684264 -4.540692 4.100982 -0.199414 -1.166868 -0.085220-3.777336 -4.755085 4.477847 -0.206554 -1.129800 -0.072723-4.036218 -5.010066 4.763413 -0.220329 -1.143652 -0.072110-4.138334 -5.215272 5.145196 -0.281062 -1.149913 -0.082194-3.724605 -5.181640 5.299503 -0.329848 -1.088007 -0.086065-3.732957 -5.334128 5.461499 -0.359129 -1.039879 -0.078854-4.326471 -5.643253 5.587069 -0.345320 -1.092136 -0.073717-3.937455 -5.825786 6.210732 -0.350567 -0.995903 -0.062158-4.266523 -6.107103 6.384991 -0.337792 -0.974835 -0.051954-4.471174 -6.155617 6.439350 -0.353183 -0.950315 -0.049777-4.677609 -6.391648 6.549607 -0.343390 -0.935270 -0.047493-4.848318 -6.394043 6.576768 -0.365769 -0.913168 -0.049926-4.651224 -6.376080 6.660531 -0.398626 -0.809048 -0.045501-4.845550 -6.601733 6.904412 -0.388815 -0.771311 -0.039615-5.277173 -6.923045 7.148538 -0.366331 -0.773869 -0.037833-5.202707 -6.963564 7.261952 -0.382275 -0.708324 -0.036260-4.815891 -6.941402 7.259825 -0.413803 -0.599560 -0.034742-4.745773 -6.915145 7.316667 -0.443296 -0.560567 -0.036161-5.171751 -7.120310 7.377010 -0.435287 -0.583380 -0.032160-5.307074 -7.343893 7.457698 -0.435571 -0.566223 -0.024900-5.392214 -7.513412 7.697299 -0.449142 -0.525767 -0.016074-5.387982 -7.559734 7.665900 -0.479639 -0.514297 -0.020119-5.417350 -7.617936 7.617082 -0.510950 -0.511724 -0.023469-5.559898 -7.668203 7.667937 -0.544038 -0.516165 -0.025560-5.628533 -7.913320 7.773898 -0.553412 -0.509883 -0.021786-5.528961 -8.051624 8.042674 -0.580484 -0.485025 -0.015301-5.504135 -8.101048 8.082206 -0.610308 -0.491570 -0.012768-5.501928 -8.139997 8.050520 -0.633123 -0.508660 -0.009439-5.223933 -8.080079 7.982506 -0.669238 -0.501166 -0.005812-5.262045 -8.179555 7.946804 -0.679554 -0.540234 -0.003469-5.028625 -8.269323 8.060649 -0.675365 -0.532030 0.002438-4.767668 -8.328803 8.088184 -0.666576 -0.522768 0.007133-4.620664 -8.209625 7.944180 -0.662424 -0.543631 0.011538-4.420667 -8.040808 7.864267 -0.659568 -0.558692 0.017160-4.380893 -7.847582 7.576316 -0.664390 -0.620010 0.015226-4.356855 -7.664917 7.307339 -0.683089 -0.674574 0.014323-4.100909 -7.573688 7.393318 -0.705603 -0.669930 0.026340-3.957027 -7.637627 7.483913 -0.725881 -0.718132 0.037495-4.090405 -7.732289 7.159947 -0.748733 -0.817818 0.041182-4.059559 -7.651977 6.933683 -0.806431 -0.898524 0.041349-3.952634 -7.530939 6.825406 -0.861152 -0.978425 0.036325-3.649081 -7.510336 6.715524 -0.913443 -1.015571 0.035966-3.173889 -7.549374 6.600669 -0.957802 -1.045222 0.038090-2.767520 -7.522432 6.560016 -1.005964 -1.071848 0.040711-2.335056 -7.470879 6.357395 -1.058871 -1.119342 0.040680-2.268809 -7.243916 5.883738 -1.120715 -1.183619 0.031381-2.250695 -7.043858 5.725986 -1.169698 -1.218861 0.031296-2.272797 -7.244915 5.621747 -1.156292 -1.254186 0.030231-2.552142 -7.439472 5.528705 -1.126412 -1.275674 0.037300-3.155068 -7.575334 5.138977 -1.084973 -1.373551 0.030741-3.248955 -7.442992 4.781616 -1.089297 -1.398441 0.024024-2.918801 -6.910985 4.655336 -1.119901 -1.356956 0.017429-3.028172 -6.449982 4.006028 -1.120692 -1.388397 0.003952-2.897655 -6.120020 3.677951 -1.099216 -1.367858 0.001840-2.618816 -6.032940 3.848349 -1.033725 -1.287445 0.012570-2.423087 -5.807972 3.774211 -0.987493 -1.209063 -0.002648-2.656205 -5.552626 3.782967 -0.958714 -1.214118 -0.020846-3.133406 -5.154437 3.449224 -0.926298 -1.297618 -0.069191-3.487823 -4.819824 3.097632 -0.906274 -1.340553 -0.107493-3.530661 -4.659656 2.993491 -0.881751 -1.312729 -0.140980-3.653548 -4.611018 2.865118 -0.857049 -1.300387 -0.181768-3.980597 -4.444456 2.842724 -0.861113 -1.327001 -0.227100-4.331902 -4.325215 3.036147 -0.869613 -1.313009 -0.257036-4.441332 -4.234780 2.886436 -0.880459 -1.294375 -0.278059-4.281829 -4.403908 3.231447 -0.848145 -1.251469 -0.290208-4.492834 -4.360815 3.082579 -0.848308 -1.279320 -0.299738-4.602737 -4.235407 2.987961 -0.853454 -1.293483 -0.311059-4.566832 -4.065656 3.048052 -0.862732 -1.274048 -0.320721-4.376279 -3.893403 3.007672 -0.873276 -1.251466 -0.331974-4.535899 -3.813760 3.004455 -0.867763 -1.279016 -0.345313-4.472143 -3.789090 3.177751 -0.859447 -1.265236 -0.355369-4.322869 -3.746476 3.034787 -0.867288 -1.259010 -0.373557-4.329371 -3.752860 3.169475 -0.870941 -1.235865 -0.385878-4.721137 -4.083513 3.277991 -0.842499 -1.254358 -0.400420-5.009316 -4.372491 3.278781 -0.840935 -1.253607 -0.420320-5.096377 -4.529419 3.458301 -0.848858 -1.226129 -0.434375-5.264493 -4.720472 3.399029 -0.850588 -1.225278 -0.449146-5.121407 -4.764669 3.117281 -0.878047 -1.179307 -0.461796-5.173419 -4.735865 2.931748 -0.895160 -1.154840 -0.468621-4.850159 -4.831291 3.127781 -0.905266 -1.059272 -0.463574-4.668214 -5.021319 3.262078 -0.903036 -0.984012 -0.456891-4.819320 -5.198274 3.090348 -0.913136 -0.969519 -0.461006-5.067108 -5.214129 2.767343 -0.947259 -0.984349 -0.471455-4.984745 -5.252599 2.511655 -0.998924 -0.944464 -0.486177-5.066549 -5.328880 2.364148 -1.048370 -0.915469 -0.502810-5.185876 -5.680000 2.370656 -1.066525 -0.868494 -0.507734-5.213973 -6.157592 2.510155 -1.087352 -0.815502 -0.519294-5.233057 -6.312063 2.451020 -1.139224 -0.788873 -0.535505-5.268675 -6.336181 2.217750 -1.207279 -0.789348 -0.556097-5.391100 -6.574317 1.970209 -1.242864 -0.809097 -0.567417-5.177673 -6.654478 1.806950 -1.296101 -0.780002 -0.571121-4.823153 -6.992160 1.921935 -1.332792 -0.728564 -0.564278-4.760389 -7.278046 1.867096 -1.367339 -0.737197 -0.566132-4.847044 -7.287394 1.569496 -1.435339 -0.780546 -0.574587-4.802539 -7.346317 1.280021 -1.509231 -0.806233 -0.587783-4.217443 -7.274561 1.062242 -1.626139 -0.771049 -0.601146-4.162152 -7.398919 1.011137 -1.663326 -0.766132 -0.601003-4.394301 -7.624900 1.235525 -1.695531 -0.791696 -0.595734-4.312674 -8.132292 1.569930 -1.704311 -0.796268 -0.590630-4.462008 -8.432558 1.557262 -1.731306 -0.847797 -0.590456-4.003676 -8.321790 1.047235 -1.828648 -0.864727 -0.605190-4.153133 -7.938933 0.562560 -1.939244 -0.978051 -0.622218-4.091924 -7.698389 0.558486 -2.013243 -0.982191 -0.610582-3.213195 -7.774585 1.012785 -2.045277 -0.869000 -0.587499-3.235357 -8.095176 1.376409 -2.030279 -0.885285 -0.569017-3.949633 -7.866427 1.048271 -2.070609 -1.076478 -0.589062-3.812773 -7.282673 1.038431 -2.142999 -1.052208 -0.581540-2.899655 -6.986884 1.070228 -2.190077 -0.927241 -0.567262-2.363147 -7.188345 0.764334 -2.174231 -0.861636 -0.558925-3.164722 -6.769277 0.314893 -2.214156 -1.033910 -0.587025-4.005747 -6.853867 0.736146 -2.159747 -1.060610 -0.574535-2.907622 -6.595440 0.910882 -2.170372 -0.865299 -0.567782-3.505547 -6.595980 0.694742 -2.113251 -0.944146 -0.582806-4.063025 -6.336517 -0.022825 -2.089330 -1.053087 -0.609309-4.210949 -5.820526 0.654597 -2.075719 -1.013433 -0.595042-3.671774 -5.743002 0.521250 -2.011696 -0.930664 -0.588377-3.715603 -5.439769 0.076475 -1.971730 -0.961171 -0.588991-3.518432 -4.974825 0.394047 -1.963719 -0.907769 -0.580370-3.685948 -4.675486 0.653073 -1.926066 -0.915802 -0.572622-3.563447 -4.651705 0.410751 -1.856405 -0.903529 -0.567957-3.456974 -4.234838 -0.246759 -1.839824 -0.972548 -0.587909-3.208203 -3.794377 0.170611 -1.809743 -0.854959 -0.565454-2.921767 -3.682413 0.521792 -1.756540 -0.815169 -0.566137-3.782132 -4.104693 0.549746 -1.636886 -0.931752 -0.576584-4.063777 -3.664859 0.042053 -1.648282 -0.982620 -0.597640-3.712852 -3.421129 0.708407 -1.616697 -0.855977 -0.575102-3.302897 -3.542787 0.421168 -1.555762 -0.835189 -0.581109-4.275483 -3.414282 0.778977 -1.487108 -0.939631 -0.572942-4.315359 -3.224712 0.699295 -1.437118 -0.977395 -0.565277-3.864451 -2.893631 0.643732 -1.415448 -0.923407 -0.556831-3.113214 -2.403081 0.531448 -1.417500 -0.807861 -0.544928-3.332210 -2.359035 1.103315 -1.349356 -0.783234 -0.525804-3.627260 -2.426749 1.127897 -1.273055 -0.886713 -0.547591-3.737627 -2.123057 1.275857 -1.250345 -0.874484 -0.545201-3.496305 -1.459619 1.088282 -1.279728 -0.850064 -0.560286-3.316847 -1.512048 0.868440 -1.239402 -0.843207 -0.565958-3.667350 -1.680354 1.282577 -1.159985 -0.847824 -0.554107-3.895407 -1.587678 1.859864 -1.123839 -0.846298 -0.542236-4.094017 -1.629106 2.042760 -1.067905 -0.838779 -0.507648-3.813410 -1.469575 1.990483 -1.054635 -0.835555 -0.492902-3.796177 -1.363525 1.902153 -1.043880 -0.865670 -0.481129-3.722931 -1.261590 2.059913 -1.018830 -0.847249 -0.444879-3.748088 -1.206493 2.056298 -1.010339 -0.851674 -0.425820-3.552264 -1.142253 2.407530 -0.994007 -0.845716 -0.399533-3.338042 -1.298883 2.704343 -0.949090 -0.807277 -0.358744-3.264236 -1.490360 2.811077 -0.897014 -0.804244 -0.324978-3.384418 -1.602064 3.026300 -0.853695 -0.804894 -0.302660-3.385877 -1.692175 3.249135 -0.815140 -0.810641 -0.294317-3.705259 -1.728299 3.421718 -0.767616 -0.811492 -0.273406-3.608623 -2.060728 3.379343 -0.694921 -0.786203 -0.254237-3.574219 -2.300978 3.580490 -0.629336 -0.768714 -0.235845-3.810081 -2.463241 3.501537 -0.578813 -0.794272 -0.226610-3.918787 -2.513080 3.477610 -0.543846 -0.792178 -0.210686-3.961756 -2.674179 3.407721 -0.507075 -0.798020 -0.197502-4.045742 -3.073026 3.382438 -0.443784 -0.804953 -0.173828-3.864877 -3.465173 3.478359 -0.389507 -0.793232 -0.150371-3.829427 -3.835040 3.746277 -0.323804 -0.796195 -0.121074-3.743413 -3.977009 3.809568 -0.293409 -0.812594 -0.101540-3.704447 -4.116319 3.794499 -0.265432 -0.845188 -0.087572-3.599518 -4.255794 3.495248 -0.255572 -0.880515 -0.085782-3.453666 -4.455740 3.443716 -0.259474 -0.875033 -0.083508-3.414248 -4.807960 3.679025 -0.243058 -0.868516 -0.074062-3.460905 -5.088530 3.769152 -0.254099 -0.881642 -0.071334-3.701864 -5.377429 3.865779 -0.256246 -0.919756 -0.069806-3.645483 -5.846429 3.691628 -0.258237 -0.949575 -0.075476-3.844387 -6.243605 3.713569 -0.255782 -0.970299 -0.070277-4.034747 -6.559442 3.731601 -0.254977 -0.986804 -0.062239-4.013775 -6.924924 3.982455 -0.244009 -0.952545 -0.041837-4.028705 -7.069571 3.876018 -0.241007 -0.953388 -0.031108-3.565618 -7.016173 3.693462 -0.257599 -0.917760 -0.023294-3.555616 -6.705398 3.324749 -0.288453 -0.928678 -0.019004-3.474310 -6.512801 3.039160 -0.303770 -0.916323 -0.023686-3.676554 -6.634768 3.068911 -0.277374 -0.908450 -0.029797-4.074092 -6.788179 3.126508 -0.247067 -0.917362 -0.031649-4.222702 -6.918860 3.299655 -0.223640 -0.882285 -0.022996-4.231341 -7.032905 3.296484 -0.208709 -0.862446 -0.025385-4.265296 -7.019409 2.940897 -0.216877 -0.872209 -0.038001-4.154049 -6.896918 2.838307 -0.226920 -0.839093 -0.040615-4.029649 -6.895311 2.826253 -0.213282 -0.821508 -0.040809-4.063734 -6.917093 2.749707 -0.175813 -0.791535 -0.026976-3.965132 -6.801831 2.706839 -0.149583 -0.769635 -0.017052-3.992237 -6.640644 2.586354 -0.120875 -0.771502 -0.010007-4.107093 -6.378568 2.076644 -0.108973 -0.798093 -0.011875-4.114561 -6.214697 1.801788 -0.082753 -0.790859 -0.005807-4.297382 -6.163070 1.669455 -0.052904 -0.794931 0.002281-4.372439 -6.049624 1.672583 -0.021880 -0.786359 0.014314-4.324879 -6.054126 1.339728 0.019222 -0.787191 0.022562-4.379823 -5.711082 1.146248 0.045637 -0.798928 0.035377-4.246966 -5.681929 0.851435 0.074208 -0.805991 0.038780-4.104026 -5.516856 0.754778 0.096920 -0.796704 0.048325-3.863010 -5.321703 0.667771 0.110840 -0.779592 0.054570-3.971376 -5.211202 0.656420 0.138785 -0.818825 0.056833-3.974469 -5.230327 0.507936 0.179920 -0.859423 0.053043-3.583641 -5.166460 0.327444 0.199858 -0.870557 0.049002-3.207879 -5.019600 0.392645 0.203814 -0.863156 0.054244-3.118355 -4.855739 0.108491 0.196122 -0.939157 0.047876-2.966872 -4.541722 0.199284 0.177247 -1.012940 0.048425-2.733324 -4.668527 0.084241 0.185519 -1.097805 0.047324-2.380215 -4.683755 0.013713 0.168014 -1.145699 0.051106-1.947527 -4.430806 0.425595 0.118544 -1.194768 0.057958-1.964509 -4.463363 0.309001 0.088990 -1.352363 0.043304-1.733040 -4.273066 0.021594 0.029764 -1.479974 0.032002-1.170743 -4.141799 -0.194616 -0.035447 -1.592578 0.023728-0.944482 -4.417471 0.133248 -0.053261 -1.641264 0.034014-0.923564 -4.567407 0.338058 -0.082360 -1.778118 0.030073-0.672595 -4.931248 0.893378 -0.106430 -1.857683 0.030987-0.695794 -5.321116 1.101328 -0.130739 -1.971347 0.014091-0.722750 -5.429567 0.925828 -0.155297 -2.103261 -0.011933-0.981141 -5.459197 0.731452 -0.193206 -2.246922 -0.039499-0.826805 -5.386601 0.665158 -0.192126 -2.273419 -0.045275-0.327007 -5.238816 0.493558 -0.213446 -2.224506 -0.045058-1.226080 -5.355622 0.364551 -0.146378 -2.297670 -0.041826-1.439409 -5.521269 0.719272 -0.096966 -2.282341 -0.037716-1.777787 -5.509226 0.896762 -0.050458 -2.292857 -0.029593-1.045232 -5.065760 0.159248 -0.077023 -2.192897 -0.031573-0.685464 -4.335474 -0.184356 -0.129418 -2.148911 -0.043223-1.388208 -4.193961 -0.945902 -0.113060 -2.219287 -0.075505-0.843846 -3.732398 -0.547335 -0.127189 -1.984235 -0.078830-1.466303 -4.239399 -0.014725 -0.031627 -1.928373 -0.095852-2.614859 -4.467281 -0.249096 0.042245 -2.032950 -0.148900-2.169617 -3.887133 -0.763685 -0.014762 -1.896369 -0.181704-2.869686 -3.224112 -1.737701 -0.043306 -1.891318 -0.223291-2.936159 -3.125606 -1.760892 -0.004086 -1.778499 -0.236303-2.276297 -3.267291 -1.547326 0.076320 -1.569391 -0.245163-3.729400 -3.474231 -1.795440 0.186811 -1.611757 -0.265749-3.217044 -2.996492 -2.012170 0.181061 -1.460959 -0.280891-3.480948 -2.653246 -2.934200 0.188109 -1.442423 -0.318942-3.526328 -2.008229 -3.522829 0.135607 -1.414670 -0.349180-3.299323 -1.993812 -3.110458 0.172817 -1.253129 -0.341354-3.995274 -2.518939 -2.846545 0.278488 -1.279129 -0.343568-4.109591 -2.745017 -2.494934 0.324209 -1.268168 -0.352755-3.845218 -2.666292 -2.868269 0.322068 -1.203041 -0.362131-3.887024 -2.150821 -3.393221 0.258691 -1.206277 -0.379628-4.354999 -2.089923 -4.002211 0.259614 -1.332958 -0.414593-4.407890 -1.958338 -4.030937 0.252337 -1.290765 -0.407593-4.209022 -2.170083 -3.378016 0.294684 -1.201219 -0.388231-4.254536 -2.834728 -3.028480 0.386700 -1.182557 -0.377914-3.871048 -2.896020 -2.852513 0.409061 -1.112125 -0.370181-4.684002 -2.297172 -3.576766 0.361820 -1.323895 -0.412307-4.923750 -2.263255 -4.161613 0.364934 -1.397712 -0.430879-4.330583 -1.911664 -4.166284 0.334298 -1.305690 -0.424668-4.321755 -2.554984 -3.891362 0.446721 -1.246392 -0.401666-4.620311 -2.900853 -3.081809 0.527252 -1.245172 -0.384951-5.289407 -3.143111 -2.592793 0.606748 -1.370574 -0.388645-3.979869 -2.432809 -3.559106 0.503061 -1.284902 -0.391799-3.943992 -1.833445 -4.286955 0.425852 -1.301754 -0.386959-4.564498 -1.749938 -4.278839 0.439942 -1.417912 -0.373902-4.578314 -2.342861 -3.761858 0.505996 -1.361787 -0.340320-4.306843 -2.652141 -2.953756 0.552005 -1.228410 -0.286930-3.640033 -2.929947 -3.347437 0.559805 -1.176404 -0.273580-5.013330 -2.731801 -3.625423 0.552931 -1.415338 -0.277261-5.025231 -2.208826 -4.391658 0.473474 -1.506478 -0.276630-4.488989 -2.660519 -4.667604 0.527269 -1.399339 -0.226239-3.941181 -2.547815 -3.785673 0.531502 -1.274402 -0.167511-4.165786 -3.279279 -3.320290 0.642419 -1.313923 -0.134210-4.264568 -3.629671 -3.550460 0.703796 -1.364536 -0.112594-4.460754 -3.298559 -3.666252 0.674799 -1.431459 -0.110260-3.977072 -3.244066 -4.021717 0.660194 -1.412698 -0.111323-3.763633 -3.107559 -4.609635 0.636098 -1.393671 -0.111229-3.698774 -2.910868 -4.313201 0.618073 -1.359230 -0.092817-4.009638 -3.811834 -3.526015 0.730654 -1.338763 -0.065533-4.711627 -4.095214 -3.388822 0.773838 -1.421054 -0.055955-4.080444 -3.645577 -3.244649 0.698800 -1.326579 -0.045056-3.715935 -2.997546 -4.200665 0.600260 -1.352611 -0.063407-4.242115 -2.721860 -4.617272 0.568147 -1.429916 -0.062966-4.221043 -2.990520 -4.019355 0.613327 -1.396603 -0.042805-4.278726 -3.823599 -3.483421 0.728412 -1.370666 -0.023990-4.105358 -3.413039 -3.230483 0.697396 -1.359611 -0.025998-3.898075 -3.206736 -3.770220 0.673318 -1.397320 -0.050360-3.927358 -2.590131 -4.333267 0.610985 -1.474052 -0.077646-3.687422 -2.769865 -4.253489 0.640184 -1.418669 -0.073035-3.936957 -3.359370 -3.420978 0.743731 -1.393233 -0.053244-4.141304 -4.088574 -2.995695 0.825199 -1.410271 -0.053353-4.469225 -4.077800 -3.199174 0.825043 -1.456003 -0.062333-4.392702 -3.464726 -4.179541 0.710781 -1.496883 -0.087604-4.503215 -3.365608 -4.586984 0.688140 -1.508488 -0.086242-4.191729 -3.787494 -4.103299 0.724245 -1.410833 -0.061477-4.644583 -4.155902 -3.390024 0.784138 -1.404510 -0.038327-4.476280 -4.352639 -3.436288 0.789511 -1.404552 -0.044324-4.326240 -3.513681 -3.533133 0.664692 -1.431671 -0.069424-4.143974 -3.184799 -3.932089 0.612661 -1.447227 -0.084879-3.780756 -2.926907 -4.602444 0.566413 -1.430469 -0.097100-3.725407 -2.787762 -4.110547 0.566784 -1.386755 -0.100181-3.912809 -3.241489 -3.838271 0.636983 -1.407515 -0.109862-3.983406 -3.623316 -3.343631 0.704585 -1.361761 -0.093543-4.130327 -3.588464 -3.097263 0.717510 -1.386699 -0.096508-4.400757 -3.378741 -3.588110 0.701101 -1.481720 -0.115985-4.225696 -3.111926 -4.098458 0.652105 -1.474812 -0.123434-3.942477 -2.903151 -4.523342 0.616583 -1.446846 -0.119870-4.123524 -3.044253 -4.400853 0.635517 -1.432642 -0.100002-4.366174 -3.375443 -3.843316 0.687989 -1.413133 -0.072580-4.370266 -3.522459 -3.439089 0.713123 -1.374773 -0.051163-4.199290 -3.508552 -3.523179 0.704461 -1.338336 -0.043340-3.800800 -3.456444 -3.866617 0.676053 -1.320744 -0.053200-4.145137 -3.267074 -4.248155 0.639580 -1.407477 -0.081753-4.387223 -3.196303 -4.211703 0.634619 -1.414321 -0.088513-4.364645 -3.328320 -4.290235 0.654616 -1.417470 -0.097041-4.529071 -3.389302 -4.144842 0.675814 -1.419823 -0.094274-4.337261 -3.378426 -3.868920 0.684437 -1.383115 -0.090772-4.106565 -3.373875 -4.004456 0.682957 -1.365929 -0.102680-4.217221 -3.235309 -4.211806 0.662369 -1.398024 -0.115179-4.302872 -2.986672 -4.368037 0.632759 -1.427723 -0.126673-4.280352 -2.816921 -4.542467 0.605967 -1.428966 -0.140496-4.343752 -2.715681 -4.690071 0.587550 -1.434611 -0.152714-4.181676 -2.902949 -4.133692 0.612419 -1.336592 -0.138341-4.084564 -3.189228 -3.671411 0.643154 -1.307312 -0.135778-4.338540 -3.109927 -3.631893 0.625623 -1.344297 -0.145115-4.229308 -2.671678 -4.086130 0.552579 -1.354256 -0.163355-3.947179 -2.186582 -4.604887 0.464705 -1.348541 -0.183230-4.044647 -2.166076 -4.428867 0.460439 -1.321002 -0.177333-4.166042 -2.557417 -3.840122 0.513663 -1.279224 -0.159883-4.320690 -2.958057 -3.400964 0.564072 -1.296433 -0.159221-4.443460 -2.977805 -3.431061 0.569100 -1.301922 -0.161739-4.505011 -2.611908 -3.983914 0.514086 -1.359133 -0.184750-4.454451 -2.335236 -4.332823 0.474173 -1.377644 -0.198152-4.351856 -2.250747 -4.200969 0.467479 -1.337505 -0.192054-4.343362 -2.504137 -3.843494 0.504803 -1.317828 -0.184759-4.421714 -2.692055 -3.637252 0.537566 -1.323149 -0.183505-4.481453 -2.693473 -3.549442 0.544172 -1.335293 -0.188133-4.423978 -2.321894 -3.768939 0.501886 -1.362453 -0.207047-4.227156 -1.976061 -4.151420 0.460143 -1.348713 -0.222496-4.037724 -1.801174 -4.082086 0.450658 -1.309593 -0.227428-4.089748 -2.048224 -3.813739 0.490982 -1.320684 -0.231712-4.359800 -2.323334 -3.578356 0.540661 -1.335434 -0.228568-4.166600 -2.154574 -3.543447 0.524422 -1.328044 -0.231756-3.968951 -1.648332 -4.120401 0.460710 -1.356573 -0.249241-3.929272 -1.433046 -4.338790 0.433833 -1.366086 -0.254635-3.784766 -1.367732 -4.360267 0.425025 -1.333117 -0.248797-3.675205 -1.713281 -3.850542 0.474432 -1.277358 -0.228177-4.052906 -2.151523 -3.702664 0.531781 -1.321096 -0.226223-4.139056 -2.114543 -3.571433 0.531559 -1.316864 -0.226091-3.967129 -1.738838 -4.080872 0.475819 -1.347498 -0.247611-3.816739 -1.441404 -4.560224 0.428259 -1.346132 -0.259687-3.891464 -1.487931 -4.454046 0.439781 -1.327254 -0.250389-4.062498 -1.906273 -3.974379 0.500679 -1.316835 -0.234784-4.256176 -2.361223 -3.652389 0.564665 -1.337841 -0.227367-4.269225 -2.352456 -3.826483 0.565208 -1.336953 -0.225952-3.961404 -1.884111 -4.133253 0.504755 -1.342531 -0.238181-3.906341 -1.578113 -4.780354 0.459335 -1.359709 -0.245572-3.747200 -1.542380 -4.722642 0.457933 -1.309109 -0.229168-3.752599 -2.059719 -4.132447 0.532854 -1.262588 -0.204026-3.972504 -2.497924 -3.749956 0.597176 -1.257762 -0.185281-4.077187 -2.418677 -3.860851 0.584236 -1.284124 -0.180891-3.859739 -1.972114 -4.485055 0.516350 -1.302594 -0.184942-3.617199 -1.553365 -5.097237 0.452092 -1.298384 -0.177182-3.344977 -1.551142 -4.851901 0.453427 -1.213501 -0.137996-3.252294 -2.088780 -4.083406 0.530845 -1.156552 -0.093968-3.469152 -2.394504 -4.089001 0.572084 -1.207168 -0.084131-3.307560 -2.241656 -4.161273 0.555520 -1.182795 -0.074710-3.048263 -1.793263 -4.764071 0.490303 -1.204590 -0.098323-3.060330 -1.380777 -5.107136 0.439612 -1.212506 -0.105995-2.856979 -1.632147 -4.668662 0.478476 -1.120609 -0.078847-2.911402 -2.289948 -4.103522 0.568371 -1.101428 -0.057309-3.363094 -2.684320 -3.924687 0.627578 -1.143955 -0.048111-3.411617 -2.469837 -4.147445 0.602732 -1.186049 -0.052197-3.429005 -1.950111 -5.018369 0.527802 -1.266140 -0.074786-3.139263 -1.654823 -5.103353 0.496136 -1.190798 -0.053675-2.993754 -1.944163 -4.847312 0.538457 -1.161506 -0.043035-3.245137 -2.569254 -4.282887 0.629555 -1.172856 -0.024930-3.529793 -2.677698 -4.043962 0.664339 -1.196769 -0.018110-3.308868 -2.288693 -4.349105 0.610469 -1.219050 -0.034627-2.991483 -1.654221 -5.087272 0.512548 -1.238692 -0.060312-2.863067 -1.334819 -5.150044 0.480387 -1.190003 -0.058036-2.667580 -1.836008 -4.870317 0.530056 -1.136499 -0.051593-3.028107 -2.363535 -4.387836 0.602997 -1.144035 -0.037899-3.277035 -2.475099 -4.237093 0.610711 -1.165646 -0.039074-3.185025 -2.024965 -4.638395 0.538540 -1.181530 -0.053864-3.069658 -1.577580 -5.173164 0.473788 -1.199461 -0.068533-2.450459 -1.655445 -5.123506 0.460140 -1.076295 -0.055687-2.512865 -1.918480 -4.678086 0.505603 -1.102387 -0.050310-2.935440 -2.447050 -4.187638 0.576562 -1.139282 -0.040209-2.278835 -1.945486 -4.576408 0.458670 -1.099798 -0.055037-1.932555 -1.466741 -4.580008 0.392733 -1.053866 -0.050039-1.291306 -1.511386 -4.693070 0.373127 -0.978659 -0.048038-2.107041 -1.664555 -4.468289 0.377785 -1.115050 -0.052564-2.747219 -1.971779 -4.620712 0.405420 -1.218445 -0.059754-2.670770 -1.894887 -4.193192 0.392517 -1.150629 -0.040520-1.728859 -1.803026 -3.746612 0.354375 -0.999846 -0.026653-2.165851 -1.894940 -4.113761 0.361893 -1.100064 -0.038965-2.639677 -1.646839 -4.576153 0.305718 -1.245978 -0.068562-3.183030 -1.705683 -4.515725 0.339184 -1.315286 -0.064077-2.522158 -1.629718 -3.882738 0.319373 -1.162238 -0.033214-1.460039 -2.124374 -3.711056 0.387025 -1.036775 -0.021791-2.431270 -1.897737 -3.640717 0.387797 -1.204373 -0.037293-3.264060 -1.880734 -4.115892 0.399714 -1.380927 -0.063451-2.620789 -1.836382 -4.039530 0.412555 -1.253416 -0.048974-1.224239 -1.825179 -3.645491 0.422629 -1.027539 -0.030382-2.085631 -1.843315 -3.893813 0.449302 -1.159243 -0.046736-3.346445 -2.380198 -4.339838 0.541972 -1.354419 -0.069200-2.435881 -1.809300 -4.328047 0.484223 -1.209915 -0.064249-1.788403 -1.790704 -3.723901 0.478982 -1.013576 -0.035240-2.340015 -2.195425 -3.670672 0.556200 -1.097162 -0.041113-3.598399 -2.605405 -3.498042 0.618067 -1.292852 -0.057412-2.453295 -1.848502 -4.156818 0.519648 -1.179026 -0.069374-2.368411 -1.588215 -4.561907 0.485581 -1.156208 -0.069907-2.445736 -1.367824 -4.456869 0.469521 -1.197795 -0.075408-2.542048 -1.964515 -3.737030 0.564335 -1.162490 -0.057666-2.215026 -1.992122 -3.576337 0.569963 -1.118909 -0.052871-2.525220 -2.158844 -3.815932 0.603598 -1.166340 -0.061682-2.319934 -1.730697 -3.888282 0.544289 -1.181534 -0.075596-2.224881 -1.326257 -4.302109 0.484653 -1.187073 -0.088408-2.518598 -1.099934 -4.859946 0.448991 -1.244261 -0.096018-2.604029 -1.581809 -4.351995 0.511588 -1.208347 -0.079249-2.406081 -2.101346 -3.749553 0.566019 -1.139425 -0.060348-2.483862 -2.273118 -3.255771 0.593050 -1.092227 -0.042270-2.339808 -2.088456 -3.869264 0.547404 -1.145949 -0.066168-2.464178 -1.748774 -4.185197 0.496572 -1.199630 -0.077230-2.363318 -1.341505 -4.666881 0.425209 -1.239120 -0.093827-2.317399 -1.164598 -4.845488 0.388998 -1.230070 -0.090609-1.853284 -1.449958 -4.230972 0.423294 -1.118019 -0.067076-1.765753 -1.900378 -3.573859 0.486038 -1.058674 -0.046059-2.070653 -2.174244 -3.225946 0.534097 -1.077483 -0.039872-2.030297 -1.851541 -3.676772 0.490577 -1.122557 -0.062405-2.165362 -1.376898 -4.191405 0.430508 -1.177924 -0.084281-2.503595 -1.197100 -4.743493 0.404566 -1.233923 -0.098535-2.443284 -1.190564 -4.686344 0.394713 -1.201074 -0.095400-2.215672 -1.471852 -3.841862 0.430726 -1.073088 -0.065965-2.672435 -1.810546 -3.408840 0.459206 -1.092534 -0.062312-2.673456 -1.723478 -3.609178 0.434839 -1.105366 -0.070574-2.497383 -1.325463 -3.948247 0.368451 -1.100937 -0.083926-2.014505 -0.640717 -4.377172 0.259121 -1.056171 -0.094466-1.997572 -0.453493 -4.487743 0.230736 -1.024619 -0.086868-2.350355 -0.693982 -4.340735 0.261013 -1.050575 -0.082862-2.364935 -1.007545 -3.617196 0.294177 -0.984674 -0.074946-2.367575 -1.282412 -3.269501 0.324606 -0.923975 -0.073516-2.191339 -0.880339 -3.869485 0.256014 -0.948418 -0.108881-2.086612 -0.373373 -4.059499 0.187801 -0.971477 -0.133233-2.398016 0.062150 -4.904742 0.139473 -1.054820 -0.162051-2.352244 0.321810 -4.912897 0.115374 -1.024889 -0.165242-2.109725 -0.092357 -4.137462 0.185926 -0.918860 -0.149852-2.196947 -0.728656 -3.560036 0.271994 -0.911961 -0.153204-2.673237 -0.695608 -3.644007 0.280961 -1.002482 -0.176590-2.867450 -0.202938 -4.234522 0.220251 -1.105945 -0.215185-2.878148 0.386140 -4.617618 0.158664 -1.130545 -0.229209-2.633143 0.270761 -4.272307 0.175200 -1.068972 -0.211398-2.757418 -0.272337 -4.198223 0.238070 -1.096859 -0.210020-3.216960 -0.387147 -4.123782 0.254876 -1.166641 -0.210523-3.094603 -0.220535 -3.637284 0.223500 -1.084468 -0.189680-2.573445 -0.091864 -3.734881 0.197135 -1.022561 -0.188786-2.838810 0.117511 -4.626040 0.163294 -1.140184 -0.225461-3.227868 0.313785 -4.860868 0.144675 -1.170387 -0.225075-3.218505 -0.073386 -4.208673 0.187675 -1.122665 -0.215773-3.472649 -0.547255 -3.987718 0.251010 -1.129988 -0.220425-3.991571 -0.449880 -4.225563 0.252895 -1.202855 -0.235386-3.573319 -0.367499 -3.765991 0.258083 -1.094624 -0.226262-3.297802 -0.451604 -3.808334 0.280857 -1.077908 -0.242880-3.705464 -0.517275 -4.458354 0.307048 -1.165514 -0.276560-3.824618 -0.510771 -3.996574 0.340646 -1.119920 -0.274544-3.747793 -0.859985 -3.459639 0.406754 -1.098858 -0.287931-4.079695 -1.075516 -3.947584 0.440213 -1.188591 -0.318422-4.384628 -0.735580 -4.382927 0.412704 -1.269067 -0.326389-4.098631 -0.676013 -3.814993 0.413331 -1.165242 -0.295610-3.735472 -0.822555 -3.738239 0.435379 -1.127024 -0.289391-4.191959 -1.080809 -3.965895 0.456235 -1.233542 -0.305589-4.709898 -0.880618 -4.509286 0.421103 -1.337173 -0.323317-4.416664 -0.495092 -4.298719 0.368790 -1.279392 -0.316606-3.695873 -0.568261 -4.136013 0.351279 -1.176671 -0.319981-3.995253 -0.572281 -4.484687 0.328171 -1.256185 -0.342359-4.400966 -0.336621 -4.813872 0.284210 -1.350447 -0.368814-4.276292 -0.499430 -4.097316 0.300067 -1.247179 -0.345322-3.944750 -1.008798 -3.701124 0.355080 -1.169212 -0.332913-4.429014 -1.337723 -3.848448 0.390456 -1.274668 -0.350907-4.786257 -1.264469 -4.057497 0.380232 -1.333278 -0.361196-4.068889 -0.917985 -3.970513 0.323316 -1.205514 -0.353227-3.771862 -0.972162 -3.975894 0.324231 -1.178387 -0.357830-4.113921 -1.388179 -3.900447 0.385931 -1.211120 -0.358284-4.660888 -1.513657 -4.026109 0.410040 -1.313235 -0.375587-4.667613 -1.315297 -3.873914 0.397522 -1.293104 -0.377173-4.113851 -1.337389 -3.646017 0.403942 -1.175491 -0.365602-3.914071 -1.583821 -3.845583 0.434634 -1.182523 -0.378703-4.621631 -1.615659 -4.027783 0.461855 -1.301572 -0.394156-4.850193 -1.391941 -4.432867 0.446522 -1.363435 -0.407171-4.370293 -1.392648 -4.122316 0.459381 -1.238583 -0.377246-4.064890 -1.825100 -3.785311 0.524327 -1.192364 -0.359761-4.498941 -2.105344 -3.917626 0.576731 -1.298231 -0.362754-4.855074 -2.012734 -4.074596 0.597199 -1.376591 -0.363601-4.588985 -1.742375 -4.532723 0.574821 -1.403257 -0.371092-4.221867 -1.652048 -4.828616 0.569099 -1.369211 -0.361766-4.148676 -1.963778 -4.578170 0.622212 -1.324436 -0.333081-4.310308 -2.348947 -4.101552 0.673056 -1.332266 -0.317049-4.760664 -2.965246 -4.039361 0.753747 -1.388014 -0.300510-4.803836 -2.917585 -4.428724 0.739041 -1.408878 -0.283739-4.370261 -2.614831 -4.717618 0.696885 -1.378519 -0.268842-4.289037 -2.412774 -5.156320 0.658311 -1.385353 -0.251968-4.353935 -2.442082 -5.238777 0.653889 -1.391240 -0.237854-4.185841 -2.840401 -4.686013 0.683780 -1.324542 -0.210000-4.114384 -3.112798 -4.121204 0.715367 -1.272610 -0.186928-4.010076 -3.337465 -3.926116 0.737514 -1.241901 -0.174940-4.096651 -3.176759 -4.325950 0.702577 -1.308352 -0.192051-4.272689 -2.753907 -4.771033 0.635945 -1.351385 -0.199620-4.212946 -2.456275 -4.989826 0.582662 -1.346282 -0.196352-4.072997 -2.708719 -4.764654 0.608989 -1.294190 -0.176127-4.013800 -3.043738 -4.375908 0.646169 -1.252942 -0.153634-4.127435 -3.193754 -4.083510 0.664171 -1.258642 -0.140918-4.109901 -2.914521 -4.090338 0.626521 -1.269096 -0.139259-3.864011 -2.530809 -4.462118 0.566762 -1.271178 -0.145670-3.806437 -2.342161 -4.727143 0.535991 -1.276406 -0.148301-3.707958 -2.522867 -4.558489 0.553614 -1.250033 -0.139063-3.698044 -2.740272 -4.310753 0.576317 -1.232421 -0.132424-3.726710 -2.775808 -4.172804 0.573672 -1.225319 -0.132809-3.584688 -2.676377 -4.186890 0.543307 -1.216566 -0.138026-3.567380 -2.617380 -4.234195 0.511420 -1.222503 -0.138383-3.739864 -2.646083 -4.293711 0.487939 -1.250691 -0.134957-3.796227 -2.778306 -4.178828 0.478298 -1.258538 -0.126322-3.878790 -2.867141 -4.019953 0.473178 -1.273207 -0.120057-3.946946 -2.790375 -3.982068 0.437060 -1.293937 -0.117005-3.663485 -2.722416 -3.947795 0.394347 -1.270801 -0.114705-3.509520 -2.653759 -3.817825 0.364311 -1.267263 -0.112355-3.443513 -2.517077 -3.758293 0.316552 -1.276185 -0.113703-3.249684 -2.246916 -3.747337 0.236085 -1.282225 -0.121036-3.100859 -2.142522 -3.613957 0.199268 -1.274319 -0.122627-3.110201 -2.092753 -3.471837 0.152965 -1.283480 -0.122095-3.291002 -2.068919 -3.466053 0.118611 -1.310388 -0.119629-3.067453 -2.089890 -3.141961 0.091641 -1.290107 -0.116293-3.208986 -2.111697 -3.009275 0.066901 -1.307478 -0.114161-3.337928 -2.058210 -3.244136 0.029567 -1.321560 -0.112366-3.292396 -2.054720 -3.183066 0.013890 -1.330547 -0.108351-3.272498 -2.155058 -2.801840 0.004207 -1.320901 -0.100948-3.364692 -2.131483 -2.856047 -0.012372 -1.329159 -0.096288-3.155395 -2.027514 -2.758989 -0.042675 -1.293664 -0.089624-2.946082 -2.129632 -2.487762 -0.044942 -1.260793 -0.091478-3.061747 -2.064217 -2.482611 -0.068690 -1.277942 -0.109131-3.186488 -1.840468 -2.787823 -0.103741 -1.306948 -0.128629-3.217028 -1.765063 -2.503145 -0.127759 -1.300045 -0.136581-3.345748 -1.736139 -2.420423 -0.130245 -1.319571 -0.145227-3.287897 -1.702837 -2.350580 -0.143931 -1.292360 -0.146078-3.139996 -1.527775 -2.264895 -0.175994 -1.270120 -0.156794-3.111919 -1.411023 -2.176777 -0.200880 -1.269325 -0.174265-3.088527 -1.197451 -2.248537 -0.241050 -1.263724 -0.196390-3.024887 -1.017898 -2.310952 -0.278217 -1.247706 -0.220302-3.021925 -0.945150 -2.279820 -0.303429 -1.242621 -0.248226-3.143067 -0.830446 -2.196853 -0.321879 -1.256615 -0.275044-3.251251 -0.874245 -2.210338 -0.323118 -1.261482 -0.293931-3.127733 -0.817015 -2.137965 -0.331760 -1.250694 -0.295854-3.178626 -0.857639 -2.085900 -0.321361 -1.265614 -0.296973-3.234855 -0.806292 -2.065056 -0.331866 -1.277526 -0.299205-3.341427 -0.841051 -2.129610 -0.320169 -1.305409 -0.303638-3.275651 -0.838422 -2.047202 -0.321695 -1.297088 -0.310204-3.164315 -0.714013 -1.974079 -0.336151 -1.287578 -0.320420-3.084902 -0.650906 -2.045555 -0.347538 -1.288305 -0.330957-2.998308 -0.562019 -2.121000 -0.360541 -1.283330 -0.341239-3.157930 -0.500458 -2.076259 -0.370790 -1.296850 -0.362915-3.175222 -0.490698 -2.051526 -0.374693 -1.291086 -0.368058-3.215320 -0.454513 -2.049038 -0.382390 -1.286763 -0.373469-3.316464 -0.397717 -2.085244 -0.390541 -1.286183 -0.381689-3.436462 -0.338382 -2.151753 -0.397827 -1.290196 -0.388735-3.454830 -0.254828 -2.152095 -0.399299 -1.283608 -0.389420-3.371464 -0.241151 -2.153258 -0.402975 -1.266723 -0.388064-3.228621 -0.208044 -2.217439 -0.405955 -1.252144 -0.388915-3.203236 -0.072351 -2.183130 -0.419839 -1.254588 -0.393491-3.169638 -0.046578 -2.172837 -0.416283 -1.255281 -0.399946-3.153747 -0.046232 -2.104060 -0.409658 -1.257968 -0.406512-3.121293 -0.098545 -2.107335 -0.395734 -1.250860 -0.412904-3.103347 -0.132845 -2.079774 -0.387933 -1.242806 -0.417098-3.134737 -0.136612 -2.047437 -0.382478 -1.236157 -0.422544-3.299619 -0.098995 -2.034640 -0.384420 -1.245302 -0.430424-3.379530 -0.147140 -2.084955 -0.379242 -1.250921 -0.433931-3.461304 -0.130063 -2.092217 -0.384381 -1.249318 -0.436386-3.428335 -0.153415 -2.129293 -0.383373 -1.238977 -0.437408-3.353372 -0.112982 -2.126193 -0.390451 -1.227573 -0.435186-3.320482 -0.060813 -2.098755 -0.392652 -1.223432 -0.429994-3.275331 -0.099806 -2.070419 -0.389666 -1.219777 -0.426078-3.275851 -0.097897 -2.083748 -0.385524 -1.230176 -0.427148-3.304346 -0.066908 -2.056804 -0.391069 -1.236034 -0.429632-3.289729 0.011071 -2.085416 -0.394875 -1.244948 -0.434496-3.277708 0.073734 -2.049819 -0.398347 -1.249371 -0.439544-3.247117 0.077654 -2.042514 -0.396987 -1.247727 -0.443492-3.283526 0.004338 -2.110400 -0.382850 -1.253067 -0.444838-3.332952 0.046078 -2.107404 -0.383191 -1.260744 -0.446811-3.367780 0.048782 -2.105168 -0.381268 -1.265716 -0.448677-3.326984 0.004721 -2.090931 -0.379504 -1.253621 -0.445831-3.304799 -0.022290 -2.097017 -0.381987 -1.247809 -0.438573-3.273899 -0.041481 -2.086956 -0.383514 -1.244415 -0.433443-3.285423 -0.059904 -2.091600 -0.387683 -1.248959 -0.428878-3.225453 -0.073931 -2.090804 -0.390919 -1.236405 -0.421199-3.259312 -0.118427 -2.063215 -0.389055 -1.237072 -0.413517-3.348536 -0.186854 -2.018822 -0.384723 -1.249329 -0.409105-3.350591 -0.187816 -2.009646 -0.389642 -1.245295 -0.404027-3.364661 -0.194041 -2.026536 -0.392704 -1.243657 -0.401690-3.330767 -0.192219 -2.023974 -0.395835 -1.244364 -0.402103-3.335364 -0.171604 -1.988009 -0.398366 -1.242002 -0.402477-3.382370 -0.167900 -1.970211 -0.401357 -1.243980 -0.403857-3.382158 -0.177729 -1.947212 -0.403515 -1.243717 -0.406545-3.422069 -0.154014 -1.984403 -0.404295 -1.249091 -0.409771-3.422261 -0.118752 -1.924880 -0.405819 -1.247895 -0.411881-3.402092 -0.129577 -1.905003 -0.403557 -1.238068 -0.413063-3.406149 -0.093669 -1.878468 -0.405385 -1.234522 -0.415228-3.315720 -0.177931 -1.736509 -0.398088 -1.209220 -0.414866-3.366390 -0.237190 -1.700128 -0.391687 -1.198760 -0.414661-3.350829 -0.200125 -1.747795 -0.394392 -1.194609 -0.418092-3.345405 -0.213432 -1.700012 -0.395944 -1.191750 -0.421372-3.397389 -0.187065 -1.845211 -0.401708 -1.201008 -0.425476-3.367303 -0.212559 -1.738028 -0.399011 -1.175598 -0.418698-3.321148 -0.280010 -1.557112 -0.384707 -1.160770 -0.411090-3.347925 -0.415600 -1.572444 -0.369262 -1.155383 -0.404206-3.309462 -0.401484 -1.499978 -0.367600 -1.146928 -0.398440-3.306491 -0.375256 -1.341415 -0.369168 -1.143726 -0.394986-3.436977 -0.364334 -1.650804 -0.373101 -1.160421 -0.397863-3.337435 -0.253262 -1.605748 -0.391961 -1.144819 -0.398890-3.323468 -0.318852 -1.398733 -0.378865 -1.131875 -0.396328-3.414113 -0.275044 -1.556713 -0.385742 -1.134725 -0.398355-3.173747 -0.210644 -1.445026 -0.396634 -1.109905 -0.401963-3.118673 -0.298398 -1.313055 -0.383010 -1.098040 -0.401392-3.321982 -0.187809 -1.408781 -0.397759 -1.107883 -0.403723-3.258889 -0.169806 -1.302025 -0.390824 -1.087773 -0.399200-3.287623 -0.340923 -1.240995 -0.368383 -1.076760 -0.398413-3.225686 -0.284016 -1.272947 -0.372896 -1.064238 -0.400296-3.222757 -0.299741 -1.333356 -0.359968 -1.061981 -0.401219-3.130735 -0.286443 -1.239584 -0.356862 -1.018509 -0.391234-3.084909 -0.267194 -1.236922 -0.336232 -1.014886 -0.383950-3.304824 -0.325419 -1.067227 -0.313469 -1.015441 -0.376877-3.309924 -0.371640 -1.248074 -0.296005 -1.034075 -0.383605-3.206045 -0.243793 -1.512312 -0.299905 -1.038091 -0.394034-3.002553 -0.005286 -1.686996 -0.326706 -1.003728 -0.400478-2.746141 0.188627 -1.538059 -0.341410 -0.956505 -0.401481-2.982517 0.124307 -1.215772 -0.314540 -0.966184 -0.399118-3.162680 -0.195900 -1.109374 -0.266397 -0.996318 -0.401882-2.898991 -0.267176 -1.037399 -0.263282 -0.931182 -0.392492-2.661082 -0.152658 -0.749777 -0.278769 -0.895344 -0.388948-3.071474 0.095990 -1.182576 -0.317446 -0.999550 -0.410721-3.118900 0.145652 -1.874301 -0.347121 -1.042597 -0.422923-2.717780 0.176431 -1.516055 -0.378209 -0.932962 -0.397865-2.926506 0.091597 -0.987808 -0.369136 -0.907625 -0.372673-2.860438 -0.222378 -0.919518 -0.351383 -0.941373 -0.373483-3.025680 -0.306887 -0.593603 -0.356960 -0.935767 -0.357378-2.511657 -0.254537 -0.492114 -0.384811 -0.888738 -0.350754-2.456493 -0.224505 -1.233900 -0.423019 -0.956613 -0.372878-2.902206 0.438174 -1.296862 -0.515042 -1.025808 -0.378754-2.562322 0.303861 -1.364730 -0.525665 -1.015781 -0.381950-2.527483 -0.136069 -0.070696 -0.468141 -0.929872 -0.343191-2.751889 -0.636402 -0.018182 -0.407956 -0.942069 -0.336800-2.603860 -0.590091 -0.319968 -0.449748 -0.989282 -0.361129-2.872815 -0.088371 -0.472750 -0.510851 -1.057942 -0.373946-2.661278 0.207314 -0.864718 -0.572355 -1.029048 -0.374813-2.819172 0.407260 -0.797672 -0.601007 -1.037783 -0.366119-2.612823 -0.277458 -0.592361 -0.529861 -0.995673 -0.351479-2.721982 -0.463862 0.170747 -0.514076 -0.995917 -0.341660-2.921979 -0.132263 -0.131677 -0.554444 -1.078636 -0.363192-2.385542 0.267094 -0.568266 -0.610434 -0.977075 -0.351874-1.829096 0.275676 -0.393804 -0.617536 -0.913445 -0.346142-2.353544 0.253395 -0.511735 -0.614355 -1.039847 -0.366091-3.234987 0.220742 -0.824305 -0.605550 -1.167505 -0.386671-2.358700 -0.023845 -0.677154 -0.579214 -1.022182 -0.364353-2.150035 -0.298203 0.576851 -0.540380 -0.925538 -0.332849-2.705190 -0.679199 -0.513596 -0.515450 -1.076499 -0.365165-3.159998 0.051798 -0.571463 -0.592983 -1.155914 -0.374988-2.277321 -0.017053 -0.134785 -0.599174 -0.966205 -0.342676-2.347915 -0.272610 -0.449001 -0.579242 -1.037681 -0.353537-2.524443 -0.336558 -0.477556 -0.583902 -1.044280 -0.350597-2.400295 -0.242497 -0.318585 -0.605605 -1.006132 -0.336447-2.127160 -0.071761 0.210649 -0.623451 -0.939459 -0.322770-1.938412 -0.125854 -0.463737 -0.642266 -0.986761 -0.347718-2.427867 0.144809 -0.663892 -0.678560 -1.043114 -0.351919-2.503080 0.186502 0.082517 -0.662758 -0.987965 -0.332388-2.577445 -0.249654 -0.353278 -0.625666 -1.084830 -0.359350-2.772914 -0.134116 -0.591672 -0.629773 -1.091868 -0.362933-2.743385 0.295679 0.111453 -0.654401 -1.034756 -0.344999-2.522410 -0.188457 -0.066217 -0.602187 -1.059366 -0.355406-2.580815 -0.046452 -0.536873 -0.619538 -1.083290 -0.359658-2.471047 0.369187 0.029010 -0.657489 -1.001242 -0.335242-2.066721 0.148022 0.219584 -0.628596 -0.963172 -0.334344-2.129538 0.002357 -0.187040 -0.627300 -0.995997 -0.344516-2.188388 0.352020 -0.002886 -0.668694 -0.960495 -0.332205-2.269637 0.308858 0.414898 -0.668417 -0.962342 -0.330077-2.383254 0.127550 -0.227891 -0.667961 -1.011811 -0.347639-2.239535 0.390462 -0.146336 -0.708646 -0.938798 -0.334828-1.934253 0.263445 -0.037755 -0.703259 -0.888817 -0.329004-2.614283 0.076152 -0.287956 -0.683763 -0.993358 -0.340162-2.692703 0.247907 0.170182 -0.691623 -0.948576 -0.322613-2.534281 0.109136 -0.268768 -0.687308 -1.001676 -0.342332-2.318758 0.201582 -0.306995 -0.695236 -0.930618 -0.323345-2.040390 0.377400 -0.006073 -0.702616 -0.911489 -0.319320-2.578694 0.368019 -0.386102 -0.699074 -1.072854 -0.349292-2.725570 0.137118 -0.303723 -0.656214 -1.019322 -0.324323-2.000066 0.184692 0.227460 -0.663170 -0.882397 -0.305450-2.170030 0.170796 -0.457263 -0.673154 -1.021747 -0.343205-2.607706 0.302967 -0.397917 -0.673046 -0.997237 -0.325550-2.062067 0.441636 0.301582 -0.691231 -0.889246 -0.307776-2.407760 0.088434 -0.278130 -0.661253 -0.982315 -0.325201-2.460633 0.264314 -0.133585 -0.686105 -0.910100 -0.305432-2.039441 0.267569 0.227833 -0.691735 -0.864509 -0.307161-2.558919 0.086650 -0.456301 -0.673415 -0.957228 -0.320704-2.209358 0.263240 -0.147973 -0.688272 -0.849375 -0.290610-1.912825 0.079685 0.300000 -0.657018 -0.830237 -0.276669-2.514502 -0.016186 -0.317358 -0.643681 -0.939053 -0.286950-2.072611 0.344694 -0.023470 -0.674922 -0.834821 -0.267239-2.024910 0.208089 -0.033570 -0.659598 -0.903912 -0.287656-2.438765 0.026548 -0.314979 -0.619868 -0.926705 -0.277479-2.113176 0.110214 0.340406 -0.618414 -0.802043 -0.245319-2.101815 0.075495 0.055557 -0.626121 -0.906115 -0.280682-2.434416 0.002469 -0.131625 -0.611048 -0.908520 -0.273487-2.187050 0.208739 0.184165 -0.642419 -0.824284 -0.254547-2.309281 0.122002 0.040476 -0.653247 -0.928268 -0.278216-2.466037 -0.026039 0.046694 -0.650855 -0.880413 -0.244908-2.183424 0.091415 0.230939 -0.674448 -0.839912 -0.236593-2.196555 0.125718 -0.313308 -0.701694 -0.914541 -0.250271-2.179103 0.147090 -0.042023 -0.707522 -0.860937 -0.230325-1.957164 0.096947 0.164400 -0.702919 -0.864964 -0.233599-2.362186 0.065114 -0.430996 -0.706001 -0.987039 -0.256453-2.101452 0.126015 0.289970 -0.697171 -0.826570 -0.213077-1.883844 0.368137 0.131030 -0.736581 -0.913441 -0.246101-2.353367 0.174705 -0.104072 -0.706152 -0.950902 -0.244450-1.882886 0.093735 0.520403 -0.692455 -0.836797 -0.222264-2.091827 0.073005 -0.019022 -0.703262 -0.954302 -0.249697-1.992946 0.191692 0.890360 -0.694608 -0.769075 -0.193114-1.598979 0.227322 0.531809 -0.721972 -0.853385 -0.232233-2.336241 0.097470 0.001186 -0.705343 -0.959824 -0.241492-2.143478 0.127702 0.844965 -0.698355 -0.828215 -0.202469-2.037292 0.118240 0.381018 -0.723549 -0.907310 -0.232772-2.133640 0.128038 0.634093 -0.708795 -0.819474 -0.210118-1.778291 0.111427 0.414147 -0.724699 -0.853763 -0.240021-2.358727 0.222424 0.242453 -0.732162 -0.946309 -0.254639-2.160419 0.212315 0.701252 -0.719627 -0.867084 -0.241674-2.020202 0.138530 0.165011 -0.730197 -0.939889 -0.272993-2.149720 0.302586 0.694719 -0.724769 -0.861308 -0.245819-1.809509 0.128017 0.540794 -0.708195 -0.870684 -0.266951-2.107819 0.135480 0.802033 -0.697892 -0.878465 -0.265982-2.046733 0.145337 0.759556 -0.691510 -0.874021 -0.274926-2.110122 0.200375 0.504442 -0.713555 -0.912317 -0.296106-2.148591 0.492440 0.267523 -0.766922 -0.907511 -0.300182-2.093099 0.390590 0.381206 -0.754596 -0.889976 -0.293117-2.027498 0.272312 0.205330 -0.754056 -0.902504 -0.291678-2.083512 0.363605 0.230610 -0.771468 -0.907077 -0.289680-1.964261 0.369140 0.643923 -0.763902 -0.850526 -0.266646-2.075897 0.310117 0.205966 -0.769726 -0.937822 -0.284887-2.232701 0.434290 0.146938 -0.783745 -0.943742 -0.277359-1.983214 0.495645 0.500740 -0.788331 -0.904311 -0.269581-2.082954 0.257692 0.062872 -0.767735 -0.963333 -0.280157-2.040359 0.266965 1.029596 -0.748744 -0.837483 -0.240670-1.959375 0.217491 0.621453 -0.755421 -0.912163 -0.267535-2.227266 0.197167 0.798395 -0.745118 -0.903287 -0.256208-1.899818 0.155162 1.030140 -0.735762 -0.850841 -0.252507-2.036548 0.213211 0.651111 -0.752211 -0.918996 -0.272215-2.117405 0.253914 0.946864 -0.746345 -0.877796 -0.256612-2.001273 0.224154 0.602169 -0.760567 -0.918355 -0.277572-1.865291 0.393525 1.163398 -0.780620 -0.854972 -0.263771-1.794236 0.070206 1.132970 -0.759135 -0.871045 -0.272177-2.044253 0.334017 1.744247 -0.810408 -0.855462 -0.272865-2.032533 0.303244 2.924950 -0.831010 -0.812513 -0.275896-2.575525 0.410284 4.370107 -0.889128 -0.844934 -0.284590-2.784061 0.058980 6.547195 -0.845693 -0.723557 -0.242313-3.323892 -0.243257 7.619636 -0.840837 -0.832517 -0.257626-3.644019 -0.633131 9.997036 -0.807002 -0.738010 -0.218284-3.720395 -0.886177 11.250407 -0.826329 -0.763951 -0.228518-4.059513 -0.636589 12.220039 -0.879378 -0.816471 -0.236199-3.900454 -0.944240 12.732001 -0.823062 -0.729459 -0.209099-3.951623 -1.261100 12.040985 -0.728722 -0.794008 -0.206765-3.913368 -1.370272 11.147535 -0.632629 -0.784306 -0.182646-3.704316 -1.137292 9.610409 -0.565303 -0.771314 -0.160767-2.978716 -0.694928 8.163634 -0.543131 -0.683528 -0.129868-2.605312 -0.671432 6.326040 -0.509510 -0.746731 -0.132605-2.365702 -0.585082 4.899657 -0.482240 -0.774802 -0.119112-2.448373 -0.388063 3.998071 -0.472286 -0.856995 -0.104999-1.826986 -0.926157 4.020864 -0.351835 -0.729900 -0.045102-1.737089 -1.397958 3.681696 -0.256322 -0.724025 -0.014829-2.169759 -1.353928 2.173366 -0.227340 -0.911513 -0.033045-1.653699 -0.714662 1.890329 -0.259637 -0.866276 -0.022080-1.416763 -0.720939 1.682919 -0.236647 -0.825101 -0.010192-1.538745 -1.018768 1.780226 -0.170658 -0.748750 0.024482-1.553513 -1.301283 1.713979 -0.116484 -0.784736 0.024245-1.966143 -0.922386 1.450124 -0.126530 -0.908352 0.007380-1.857380 -0.484765 1.172350 -0.164682 -0.867088 0.016721-1.223509 -0.250766 0.857257 -0.186893 -0.782826 0.022264-1.457056 -0.483524 1.461561 -0.125460 -0.731045 0.050454-2.020583 -0.778339 2.073616 -0.060048 -0.780683 0.057863-2.745601 -0.673969 1.681146 -0.056719 -0.877086 0.049081-2.295812 -0.237360 1.688369 -0.101968 -0.771303 0.064589-1.957639 0.132032 1.509740 -0.138258 -0.709752 0.071165-1.797334 0.261475 1.862462 -0.123582 -0.637055 0.093436-1.963214 -0.020121 2.337547 -0.043071 -0.597188 0.117623-1.938925 -0.100955 2.623399 0.006417 -0.535344 0.137802-1.825668 -0.110533 2.765257 0.035387 -0.507341 0.141535-2.021736 0.243063 2.418939 0.022529 -0.545913 0.126050-2.446708 0.581989 1.631332 0.002598 -0.606341 0.105054-2.345837 0.592800 1.838451 0.034292 -0.504367 0.118387-2.609072 0.092284 2.443065 0.148551 -0.440615 0.136741-3.076108 -0.271568 2.747131 0.239206 -0.431677 0.146286-3.209957 -0.242059 3.187935 0.296567 -0.361162 0.157533-3.258342 -0.122059 3.020480 0.330550 -0.338104 0.143866-3.552579 0.218745 2.529291 0.340350 -0.350818 0.124384-4.084207 0.340692 2.643470 0.420686 -0.310680 0.123756-4.172857 0.257979 2.756696 0.455926 -0.281781 0.129867-3.958145 0.193212 3.136059 0.489201 -0.184778 0.148722-3.605368 0.194270 3.403211 0.518005 -0.104542 0.158237-3.717144 0.315531 3.133362 0.531570 -0.120363 0.156288-3.968093 0.356255 3.134261 0.556114 -0.134893 0.163900-3.759721 0.060942 3.005006 0.590637 -0.107112 0.167916-3.794498 0.052400 2.760718 0.594721 -0.118401 0.165023-3.902518 0.139201 2.515393 0.579974 -0.147401 0.159212-3.842829 0.167656 2.315142 0.576965 -0.161987 0.154745-3.704926 0.215121 2.275986 0.568206 -0.163792 0.155665-3.633062 -0.092656 2.222804 0.605240 -0.178556 0.164683-3.590488 -0.237040 2.376316 0.624366 -0.213578 0.172246-3.035958 -0.064552 2.652077 0.600595 -0.177622 0.180591-2.566777 0.007324 2.744952 0.575500 -0.199650 0.177865-3.037402 0.003805 2.658178 0.568323 -0.360731 0.165923-3.280757 -0.159642 2.465380 0.566294 -0.469432 0.154325-2.907199 -0.174429 2.716476 0.558464 -0.443929 0.163950-2.425421 -0.426261 3.083943 0.572674 -0.380112 0.175296-2.703737 -0.937968 3.328929 0.614420 -0.424345 0.182346-3.056550 -1.131453 3.229049 0.619372 -0.529342 0.171632-2.900248 -1.071602 3.032418 0.579969 -0.550791 0.165734-2.619815 -0.985917 2.508221 0.529977 -0.570194 0.160679-2.519327 -0.806542 2.191283 0.475977 -0.639228 0.162346-2.357194 -0.903844 2.286560 0.464119 -0.625437 0.187946-1.918052 -1.057656 2.673574 0.456827 -0.557454 0.209936-1.396176 -1.234035 3.137308 0.442716 -0.510879 0.222696-1.244134 -1.204470 3.227836 0.400021 -0.531017 0.217563-0.998660 -0.891475 2.849860 0.311761 -0.562245 0.194584-0.820039 -0.813839 2.645164 0.244317 -0.559825 0.180364-0.946852 -1.065165 2.750775 0.226284 -0.571539 0.178172-1.504704 -1.416499 3.008480 0.211978 -0.651901 0.169894-1.812066 -1.623057 3.154221 0.193518 -0.684168 0.167154-2.052801 -1.731801 3.333085 0.160441 -0.717282 0.161658-2.152218 -1.876754 3.411977 0.134763 -0.761960 0.153713-2.230550 -1.777942 3.777320 0.100284 -0.785665 0.160866-2.379439 -1.550531 3.866038 0.073670 -0.841386 0.161095-2.115514 -1.349550 3.883180 0.049495 -0.810351 0.172656-1.447329 -0.995478 4.201693 -0.002629 -0.671600 0.186876-1.301469 -0.847438 4.276163 -0.046335 -0.570793 0.171915-1.482408 -0.748574 4.241876 -0.088641 -0.528258 0.136243-2.046764 -0.766283 4.143715 -0.118175 -0.532716 0.087223-2.593486 -0.859512 4.074072 -0.123336 -0.513833 0.065591-2.983289 -1.112576 4.206375 -0.096207 -0.451009 0.069959-3.618352 -1.423610 4.546149 -0.059291 -0.410874 0.087613-4.172185 -1.498118 4.762559 -0.041074 -0.397623 0.093342-4.561518 -1.374698 4.748317 -0.046994 -0.375544 0.094132-4.583150 -0.837392 4.595966 -0.104068 -0.326231 0.090355-4.228173 -0.298133 4.751965 -0.155993 -0.227468 0.095014-4.030152 0.052638 5.180907 -0.166354 -0.110521 0.110450-3.994782 0.327436 5.435924 -0.180339 -0.037769 0.113060-3.760762 0.515860 5.785976 -0.183300 0.077310 0.111344-4.051844 0.561775 5.834384 -0.179685 0.081539 0.107660-4.366691 0.562445 5.650650 -0.187198 0.090958 0.093829-4.777211 0.402454 5.726105 -0.172841 0.104667 0.082654-5.328641 -0.068095 5.603955 -0.126501 0.067143 0.075790-5.499809 -0.332708 5.347332 -0.104841 0.067288 0.077931-5.567778 -0.578930 5.161408 -0.080454 0.084169 0.085990-5.600861 -0.749503 4.948799 -0.064439 0.064176 0.085703-5.553488 -0.870655 4.755990 -0.052613 0.067622 0.089553-4.853425 -0.608235 4.417854 -0.093842 0.139459 0.090773-4.681051 -0.552304 4.211551 -0.102973 0.146636 0.088305-4.450359 -0.660045 4.290206 -0.082975 0.168621 0.091740-4.323232 -0.766712 4.462774 -0.054394 0.192440 0.096964-3.881941 -0.642840 4.514752 -0.056063 0.252667 0.086226-4.080756 -0.672652 4.133594 -0.035442 0.183881 0.057335-4.284833 -0.559238 3.583292 -0.035985 0.095123 0.030017-4.298983 -0.465186 3.144032 -0.035597 0.046617 0.023512-4.037742 -0.448824 2.758960 -0.027006 0.029385 0.024037-3.908623 -0.581521 2.692113 0.000737 0.000789 0.032875-3.614929 -0.736197 2.499918 0.021594 -0.006477 0.043142-3.749412 -0.996851 2.308756 0.059767 -0.080169 0.054594-3.213461 -0.981140 1.996851 0.047266 -0.087578 0.058215-2.825934 -0.907168 1.557554 0.033394 -0.114197 0.063252-2.710825 -0.862215 1.130241 0.025822 -0.184368 0.063419-2.539970 -1.006377 0.986421 0.045621 -0.229793 0.075045-2.093343 -1.078852 0.946073 0.054925 -0.208685 0.090556-2.097011 -1.272880 0.985356 0.088930 -0.251940 0.101014-2.133005 -1.401255 0.979478 0.120712 -0.312425 0.093316-1.579500 -1.181736 0.857224 0.098396 -0.293199 0.073593-1.717614 -1.160316 0.556747 0.108309 -0.370066 0.056325-1.884843 -1.116222 0.448535 0.127326 -0.448070 0.048314-1.779185 -1.206039 0.636154 0.163664 -0.473004 0.050781-1.465272 -1.190988 0.678492 0.187317 -0.456604 0.060116-1.183800 -1.002457 0.735831 0.188886 -0.433358 0.071280-1.048356 -0.833142 0.587566 0.195255 -0.479443 0.071086-1.134334 -0.793983 0.391996 0.210869 -0.542331 0.070296-1.320127 -0.751224 0.337476 0.227002 -0.592100 0.078449-1.546650 -0.829200 0.365597 0.262555 -0.653853 0.088017-1.747057 -0.790145 0.445099 0.294262 -0.734947 0.091168-1.503010 -0.658362 0.649676 0.313357 -0.717901 0.106457-1.385377 -0.584248 0.554365 0.338816 -0.753204 0.111202-1.403125 -0.394514 0.513277 0.356532 -0.837002 0.106099-1.248454 -0.072205 0.466667 0.346538 -0.864856 0.088343-1.061718 0.050651 0.285623 0.348052 -0.876898 0.068130-1.073916 0.310753 0.233976 0.339792 -0.910106 0.049766-1.401703 0.160206 0.374605 0.381606 -0.984304 0.030967-1.688342 0.095297 0.523569 0.411410 -1.033305 0.009341-1.775062 0.074602 0.634039 0.421457 -1.042954 -0.001085-1.987019 -0.045497 0.663874 0.442935 -1.083628 -0.021939-2.256451 -0.035144 0.719171 0.453778 -1.141000 -0.042051-2.525843 -0.060850 0.684764 0.470855 -1.207846 -0.054180-1.992877 0.197879 0.649336 0.442110 -1.155161 -0.061398-1.855350 0.375819 0.615160 0.435909 -1.163321 -0.067778-2.304584 0.253301 0.638702 0.471716 -1.229514 -0.072285-2.591569 0.182229 0.753893 0.507091 -1.258008 -0.073358-2.328410 0.415957 0.767586 0.496901 -1.205597 -0.078008-2.492076 0.511444 0.655441 0.499043 -1.215050 -0.087300-3.275712 0.399776 0.585222 0.540880 -1.308441 -0.097762-3.368686 0.551476 0.597896 0.531744 -1.272775 -0.102191-3.833256 0.407728 0.735413 0.566307 -1.248415 -0.100143-4.259886 0.204267 1.078443 0.615084 -1.209365 -0.097727-4.246636 0.190865 1.304017 0.635884 -1.124088 -0.099775-4.397819 0.324210 1.347204 0.640758 -1.072060 -0.104182-4.693365 0.337323 1.562594 0.668917 -1.039071 -0.104794-4.517677 0.293544 1.684791 0.688921 -0.959877 -0.101990-4.849689 0.276560 1.775389 0.698188 -0.934323 -0.095889-4.790859 0.060914 1.783268 0.713577 -0.881571 -0.087261-4.906050 0.072942 1.683313 0.698673 -0.859269 -0.080476-5.310794 -0.099771 1.413828 0.698926 -0.906877 -0.076283-4.800743 -0.120956 1.150898 0.674456 -0.809245 -0.059506-5.231922 -0.366375 0.907817 0.688899 -0.852129 -0.045745-5.319881 -0.579146 0.759475 0.697869 -0.870057 -0.030999-5.240525 -0.809971 0.561850 0.711248 -0.853913 -0.013515-5.199341 -0.931513 0.438719 0.708815 -0.854011 -0.003256-4.480686 -0.951407 0.230545 0.679237 -0.750596 0.001106-5.219645 -1.143456 -0.098801 0.686261 -0.865718 -0.006176-5.501238 -1.290958 -0.334271 0.690611 -0.922206 -0.009034-5.842059 -1.744749 -0.469740 0.730183 -0.950390 -0.000048-5.632638 -1.881050 -0.449726 0.726880 -0.900765 0.009608-5.013180 -1.779287 -0.522864 0.685388 -0.809717 0.013530-5.810839 -2.057721 -0.764162 0.703948 -0.906922 0.014439-6.142046 -2.285634 -0.750770 0.710617 -0.945213 0.016554-6.107236 -2.435019 -0.521558 0.701009 -0.888096 0.026179-5.142935 -2.152782 -0.322477 0.621566 -0.706255 0.029114-6.025226 -2.231698 -0.313466 0.596499 -0.774659 0.022420-6.678303 -2.341543 -0.037052 0.579833 -0.818864 0.022510-6.652038 -2.536592 0.538814 0.557430 -0.732150 0.037608-5.905454 -2.365173 0.954487 0.488128 -0.545565 0.055383-7.138102 -2.542103 0.964313 0.481483 -0.689367 0.050519-7.859515 -2.540745 1.218727 0.452262 -0.787534 0.042303-7.253784 -2.367775 1.952570 0.389332 -0.630067 0.055854-6.805197 -2.286841 2.039725 0.327560 -0.518631 0.050679-7.553162 -2.200187 2.413118 0.277931 -0.610428 0.021430-7.520230 -2.216043 2.926936 0.229834 -0.618142 -0.007251-7.153238 -1.975582 2.942979 0.178004 -0.576486 -0.016588-7.110324 -1.913917 3.135920 0.153165 -0.591346 -0.032483-7.272686 -2.147092 3.468500 0.171515 -0.629710 -0.046330-7.508790 -2.117520 3.232478 0.149222 -0.704684 -0.077789-7.529246 -2.008024 2.996079 0.123295 -0.726803 -0.108351-6.509830 -1.919986 3.442791 0.109973 -0.614205 -0.128812-6.770454 -2.060552 3.319896 0.147905 -0.719669 -0.174166-7.485758 -2.135972 2.464545 0.166718 -0.876558 -0.210087-6.129926 -1.587526 2.368023 0.110274 -0.776521 -0.243211-5.712840 -1.787179 2.348848 0.158834 -0.788868 -0.258044-5.547716 -1.463937 1.289951 0.134931 -0.837759 -0.279115-5.710367 -1.437217 0.357448 0.142879 -0.964528 -0.297542-5.675766 -1.516838 0.125068 0.178942 -1.049790 -0.305601-5.513667 -1.458125 -0.262269 0.190361 -1.096187 -0.311457-5.106701 -1.007911 -1.247846 0.147920 -1.084644 -0.320253-5.262273 -1.210362 -1.622271 0.187232 -1.198554 -0.329730-4.969121 -1.042010 -1.959898 0.181233 -1.226491 -0.334776-5.295053 -0.947361 -2.029431 0.175128 -1.248172 -0.323970-4.222071 -1.007851 -2.329495 0.162289 -1.156947 -0.323592-4.374840 -0.557925 -2.415023 0.090321 -1.158316 -0.331141-4.343156 -0.767876 -2.331259 0.087286 -1.172487 -0.340429-4.117612 -0.634753 -2.428757 0.045959 -1.118597 -0.346616-4.533353 -0.833443 -2.102697 0.041173 -1.149510 -0.348118-4.469677 -0.915030 -1.991580 0.019044 -1.126396 -0.349231-4.936693 -0.793776 -1.886578 -0.021690 -1.170279 -0.351742-5.133937 -1.077838 -1.751864 -0.018854 -1.226087 -0.357337-4.515154 -1.007291 -1.506216 -0.059357 -1.123529 -0.352988-5.152725 -1.036442 -1.215680 -0.069617 -1.211239 -0.357466-5.306170 -1.097031 -1.133468 -0.070680 -1.277021 -0.369661-4.755747 -0.978972 -1.314633 -0.107748 -1.228633 -0.380574-4.535891 -0.544821 -1.559416 -0.173041 -1.229016 -0.398346-5.177679 -0.921243 -1.570046 -0.124377 -1.316866 -0.397177-5.003209 -0.827689 -1.808364 -0.138121 -1.285203 -0.400160-4.969071 -0.809297 -2.002571 -0.151120 -1.285010 -0.400874-4.995019 -0.831157 -1.992649 -0.155268 -1.269224 -0.398000-5.059860 -0.962213 -1.740911 -0.149103 -1.298968 -0.403775-4.944310 -0.853284 -1.714103 -0.181387 -1.303757 -0.412822-4.769699 -0.812867 -1.541511 -0.209437 -1.287088 -0.411777-4.631944 -0.988680 -1.182195 -0.209138 -1.316327 -0.417959-4.316660 -1.070346 -0.346215 -0.214540 -1.277987 -0.410035-4.898779 -1.455925 0.584553 -0.182328 -1.356799 -0.398814-5.218005 -2.073135 1.420519 -0.134361 -1.407733 -0.389395-4.837464 -2.208811 1.714474 -0.160832 -1.389711 -0.394058-4.593422 -2.053524 2.003278 -0.206186 -1.387463 -0.403666-5.422859 -2.348827 2.136091 -0.174861 -1.506122 -0.407439-5.809727 -3.004141 2.491235 -0.099664 -1.536733 -0.399828-5.108734 -2.924325 2.537531 -0.108313 -1.424718 -0.393991-5.086099 -2.978611 2.344746 -0.100251 -1.458896 -0.403604-5.006159 -3.015959 1.999197 -0.083519 -1.495302 -0.409731-4.618039 -2.899122 1.932633 -0.092216 -1.457534 -0.405161-4.368879 -2.966372 2.365799 -0.072037 -1.445627 -0.393475-4.468802 -3.085812 2.222665 -0.050406 -1.498635 -0.393146-4.225197 -3.313427 2.274456 -0.020019 -1.496107 -0.384614-3.879859 -3.140595 2.535886 -0.035655 -1.447674 -0.374054-5.268341 -3.739251 2.534708 0.061851 -1.641341 -0.362477-4.812924 -3.668085 2.568968 0.062555 -1.588671 -0.358031-5.487618 -3.826174 2.637363 0.107790 -1.639786 -0.344324-4.405790 -3.747394 1.947830 0.101417 -1.511012 -0.346436-5.281556 -4.032276 1.591057 0.162861 -1.579158 -0.336430-5.209077 -3.909172 1.318426 0.169864 -1.532512 -0.332282-5.437109 -4.221348 0.624357 0.231658 -1.536227 -0.318308-4.758228 -3.802769 0.381491 0.200852 -1.421926 -0.292234-4.858828 -3.854514 0.068013 0.233623 -1.437782 -0.281857-5.493988 -3.783388 -0.643511 0.254209 -1.534832 -0.284982-4.227591 -3.690191 -0.667500 0.254897 -1.320785 -0.269461-4.548028 -3.809065 -0.676725 0.305975 -1.336121 -0.264633-4.851319 -3.486563 -0.501519 0.303323 -1.346594 -0.268558-4.329662 -3.556238 -1.068484 0.318324 -1.299615 -0.285408-4.728640 -3.173828 -0.896398 0.311189 -1.311134 -0.290872-4.507696 -3.287465 -1.075804 0.309994 -1.285135 -0.295798-4.337520 -3.221125 -0.205069 0.199476 -1.256697 -0.292862-4.566764 -3.874499 0.378878 0.166489 -1.365337 -0.296032-4.745008 -4.341380 1.759431 0.155551 -1.365198 -0.263395-4.210161 -4.924449 3.151969 0.163811 -1.288763 -0.237606-4.500724 -5.551302 3.565622 0.183942 -1.362621 -0.229576-3.931677 -5.799648 3.637518 0.175812 -1.280275 -0.220901-4.126360 -5.550772 3.335103 0.131763 -1.343391 -0.229770-4.309252 -5.729659 2.212515 0.217705 -1.378085 -0.253167-4.379824 -4.621622 0.669053 0.262106 -1.313467 -0.253883-4.383981 -4.759772 -0.223414 0.352889 -1.213212 -0.249789-4.525762 -4.265707 -0.889991 0.330948 -1.257895 -0.282394-4.824775 -4.303803 -1.005331 0.399599 -1.206812 -0.277105-4.736973 -3.951643 -1.357115 0.368713 -1.202519 -0.295727-4.737880 -4.075038 -1.483811 0.404604 -1.162510 -0.296907-4.910224 -3.901819 -1.793021 0.371530 -1.169908 -0.302655-5.138109 -3.818467 -1.841288 0.349704 -1.190896 -0.306088-4.973574 -3.838263 -2.023897 0.330161 -1.179901 -0.308285-5.046438 -3.574712 -1.518006 0.288935 -1.152797 -0.300792-4.811185 -3.798874 -1.371516 0.275470 -1.131568 -0.305419-4.351579 -3.318551 -1.563567 0.184036 -1.057147 -0.307409-4.038729 -2.875237 -1.533328 0.092767 -1.057390 -0.330346-4.105080 -2.921429 -1.647440 0.050358 -1.095860 -0.346898-4.067390 -2.761928 -1.344098 0.019974 -1.076496 -0.344046-4.283502 -3.127931 -0.941174 0.036698 -1.085977 -0.335749-4.048532 -3.036260 -0.888955 0.008425 -1.082472 -0.342378-4.148618 -2.904955 -0.794869 -0.012549 -1.104824 -0.344230-3.922623 -2.572882 -1.076659 -0.079342 -1.073185 -0.348605-3.054790 -2.366531 -0.992627 -0.121853 -0.959180 -0.345632-3.354964 -2.251298 -0.998882 -0.143927 -1.016645 -0.351701-3.549946 -2.394644 -0.888254 -0.124997 -1.037745 -0.348304-2.947599 -2.477312 -0.458708 -0.112368 -0.921753 -0.335774-2.744034 -2.401173 -0.424142 -0.115874 -0.880825 -0.339385-2.585584 -2.290162 -0.576220 -0.128879 -0.872671 -0.352671-2.987276 -2.219322 -0.677446 -0.117743 -0.938968 -0.363870-3.374126 -2.342305 -0.674394 -0.089872 -0.966847 -0.364861-2.713542 -2.091462 -0.548371 -0.112105 -0.837111 -0.357934-2.669593 -1.989967 -0.372093 -0.113647 -0.802530 -0.352164-2.550334 -1.859455 -0.501245 -0.128824 -0.801054 -0.355091-2.346579 -1.660538 -0.423910 -0.144826 -0.762320 -0.347158-2.040706 -1.386806 -0.604456 -0.188071 -0.724678 -0.347895-2.126209 -1.161264 -0.571099 -0.220518 -0.745747 -0.349640-2.595752 -1.188453 -0.479434 -0.212723 -0.821121 -0.354372-2.417226 -0.971212 -0.321339 -0.244510 -0.792552 -0.355762-2.446562 -0.804950 -0.449549 -0.274064 -0.810094 -0.364591-2.568183 -0.773411 -0.306001 -0.284731 -0.851813 -0.371481-2.621372 -0.581956 -0.129084 -0.314254 -0.881431 -0.374049-2.080769 -0.386629 0.005988 -0.354467 -0.816014 -0.365744-1.949297 -0.261419 0.125786 -0.385217 -0.848267 -0.365675-2.449741 -0.193082 0.172218 -0.397103 -0.962320 -0.364450-1.958040 -0.133366 0.265110 -0.419594 -0.927536 -0.356317-1.290947 0.051685 0.175737 -0.463191 -0.875323 -0.354784-1.683873 0.252283 0.238314 -0.481178 -0.956605 -0.359304-2.150934 0.333598 0.386752 -0.485420 -1.067130 -0.363875-1.984788 0.325876 0.315956 -0.479512 -1.082581 -0.363351-1.611243 0.427606 0.397198 -0.489823 -1.050581 -0.357559-1.418334 0.499330 0.528251 -0.489515 -1.055798 -0.351071-1.734904 0.744048 0.751238 -0.496340 -1.141804 -0.349616-1.780075 0.879226 0.512438 -0.499506 -1.207897 -0.351641-1.364466 0.929590 0.296020 -0.496543 -1.183327 -0.347408-1.125208 1.131762 0.596380 -0.483906 -1.180757 -0.345069-1.383458 1.213862 0.716506 -0.454557 -1.245204 -0.350945-1.416895 1.109566 0.455299 -0.413884 -1.291767 -0.358239-1.334429 1.320076 0.495837 -0.396442 -1.292586 -0.354077-1.792235 1.535330 0.844708 -0.349470 -1.360063 -0.349287-1.884283 1.375479 0.530130 -0.276389 -1.424498 -0.357728-1.783092 1.529373 0.415197 -0.245193 -1.421160 -0.356727-1.894443 1.862539 0.600779 -0.207247 -1.432083 -0.350286-1.985117 1.708935 0.864961 -0.118988 -1.448144 -0.342414-1.641570 1.840843 0.997092 -0.049645 -1.414947 -0.342407-1.375383 2.134388 0.938947 -0.040475 -1.378476 -0.343486-1.595837 2.459368 0.819987 -0.006218 -1.411174 -0.348306-1.725336 2.664824 0.819510 0.049927 -1.463555 -0.358554-1.750044 2.745640 0.770103 0.118941 -1.461727 -0.357665-1.679685 2.881153 0.903815 0.209794 -1.406686 -0.340951-2.100343 2.789905 1.108231 0.322917 -1.454202 -0.339312-2.808470 3.018240 1.055658 0.383187 -1.571455 -0.351736-2.936490 3.416372 0.783496 0.423723 -1.594595 -0.356730-2.812457 3.487545 0.775737 0.469689 -1.583936 -0.352428-2.830121 3.505163 0.896527 0.519194 -1.599632 -0.346102-2.846661 3.581349 0.880105 0.566336 -1.629876 -0.337019-2.287289 3.691365 0.921754 0.600141 -1.598891 -0.327540-2.550413 3.676032 0.791657 0.653510 -1.688803 -0.327403-2.685093 3.657280 0.858629 0.713333 -1.753583 -0.328531-2.454302 3.681685 0.961199 0.769039 -1.739396 -0.324631-2.552345 3.714909 0.796132 0.812497 -1.751578 -0.326218-2.752895 3.427746 0.997780 0.905038 -1.783026 -0.326457-2.908253 3.321233 1.087954 1.010129 -1.794279 -0.335922-3.073356 3.320854 1.150258 1.026881 -1.825024 -0.338278-3.381682 3.252049 1.201812 1.054565 -1.882374 -0.338688-3.449412 3.262400 1.391847 1.073501 -1.892995 -0.331856-3.151756 3.263752 1.677321 1.088792 -1.838509 -0.321051-2.979596 3.201877 1.890388 1.114771 -1.813629 -0.311030-2.816422 3.172193 1.977065 1.144829 -1.804554 -0.305895-2.903582 3.315454 2.026637 1.155936 -1.834441 -0.304434-2.548876 3.342896 1.982039 1.164244 -1.797950 -0.297964-2.712816 3.159850 2.144471 1.195971 -1.810258 -0.292262-2.316377 2.791687 2.441915 1.228083 -1.746189 -0.287944-2.192185 2.626473 2.598296 1.244384 -1.735407 -0.285277-2.803836 2.282322 2.775240 1.275602 -1.835838 -0.288369-2.600997 2.080429 2.644083 1.278877 -1.821441 -0.293327-3.088393 1.773179 2.426999 1.283573 -1.903223 -0.302378-3.369308 1.496819 2.819803 1.306513 -1.927033 -0.285082-3.968908 0.943146 2.972722 1.362194 -2.019307 -0.254955-3.259363 1.051511 2.998833 1.334957 -1.946061 -0.232538-2.984286 1.177270 2.850543 1.308712 -1.933057 -0.212664-2.804042 1.408943 2.682369 1.263391 -1.945067 -0.212469-3.304290 1.179347 2.960754 1.282922 -2.007283 -0.205382-2.936310 1.159273 3.020832 1.258791 -1.933947 -0.206293-2.370774 1.010034 3.389899 1.251624 -1.813862 -0.204445-2.849387 0.905448 3.158428 1.245190 -1.885393 -0.225535-3.600307 0.631033 3.018486 1.276902 -1.961188 -0.238540-3.265315 0.827164 2.764028 1.245177 -1.883486 -0.249395-2.550268 0.865423 2.594874 1.225599 -1.746541 -0.251403-3.627384 0.841084 2.495812 1.234300 -1.865348 -0.250910-4.204783 0.248961 2.472858 1.313566 -1.896356 -0.216791-3.401281 0.270831 2.539947 1.307462 -1.731754 -0.193443-2.337829 0.508685 2.521154 1.268461 -1.518780 -0.160665-3.692100 0.603627 2.151474 1.272953 -1.728850 -0.145545-4.187576 0.533269 2.018385 1.296851 -1.826537 -0.112165-3.080469 0.567297 1.882369 1.290476 -1.640455 -0.061504-2.866593 0.374440 2.134244 1.318581 -1.572500 0.000421-3.559819 0.106513 2.071859 1.355455 -1.701638 0.021814-3.497492 0.138364 1.987098 1.344225 -1.710367 0.029688-2.728860 0.269617 1.837752 1.300050 -1.603586 0.040137-3.264256 0.286121 1.627984 1.288294 -1.708575 0.032717-3.124657 0.010123 1.570923 1.301429 -1.769887 0.015779-2.891133 0.278178 1.672976 1.269320 -1.717928 0.009187-2.804779 0.144254 1.746804 1.283748 -1.677160 0.003643-3.308965 0.111927 1.880974 1.312200 -1.732076 -0.001031-3.527624 -0.051673 1.887108 1.345505 -1.754293 -0.004370-2.946251 0.250842 1.802866 1.331868 -1.643208 0.003595-2.915778 0.117681 1.745446 1.361666 -1.630252 0.002307-3.266814 0.339432 1.575603 1.362353 -1.714340 -0.006504-3.914960 0.325803 1.567629 1.411976 -1.791834 0.005146-2.955129 0.417630 1.583646 1.418945 -1.645540 0.020018-2.700570 0.552139 1.756893 1.440599 -1.572411 0.032315-3.020891 0.546726 1.694981 1.465777 -1.631757 0.027904-3.304528 0.701656 1.675929 1.481440 -1.648532 0.024822-3.315604 0.632817 1.508235 1.506674 -1.641867 0.018718-3.614198 0.511186 1.393803 1.534205 -1.667948 0.006333-4.045370 0.605672 1.631017 1.534238 -1.716586 -0.015331-3.439450 0.710136 1.550343 1.519866 -1.635441 -0.047434-3.638666 0.650684 1.006208 1.512508 -1.658220 -0.084928-4.458814 0.568512 1.079920 1.515583 -1.768708 -0.118080-3.600456 0.701280 1.202793 1.500370 -1.661073 -0.120212-3.427545 0.641938 1.240615 1.497338 -1.636704 -0.112673-3.961465 0.631923 1.230349 1.508912 -1.718964 -0.105196-3.581547 0.648663 1.130863 1.516433 -1.707634 -0.093973-3.349689 0.539903 0.940241 1.520999 -1.705193 -0.081252-3.954753 0.905752 0.738118 1.486500 -1.806467 -0.063636-3.657222 0.784825 0.476411 1.486909 -1.836785 -0.047315-2.286806 0.916089 0.438956 1.444615 -1.667233 -0.020513-3.523235 0.845426 0.352237 1.460025 -1.848679 0.003939-3.484067 0.376825 0.439842 1.528014 -1.869179 0.029198-2.005974 0.551392 0.607898 1.497664 -1.676260 0.048876-2.869027 0.792942 0.430649 1.488467 -1.807308 0.054927-2.894571 0.435390 -0.161640 1.531469 -1.868722 0.054341-2.573560 0.599623 0.228837 1.511004 -1.799248 0.065556-3.114428 0.628188 -0.051652 1.521499 -1.879816 0.070353-2.582862 0.253788 -0.146860 1.543271 -1.771686 0.080870-2.496894 0.602150 0.295473 1.481766 -1.762329 0.085932-2.774892 0.469764 0.114142 1.472118 -1.822449 0.086179-2.743371 0.501089 0.410455 1.414513 -1.816476 0.104568-2.325135 -0.011672 1.103235 1.403704 -1.777396 0.126655-2.048642 -0.420141 1.761900 1.333994 -1.768930 0.141217-2.047513 -0.936539 2.683779 1.196716 -1.723970 0.155489-2.747641 -1.950467 1.697143 1.319891 -1.746176 0.165456-3.093201 -2.171470 1.811730 1.198746 -1.681279 0.169867-2.749432 -2.553971 1.485110 1.120238 -1.621559 0.161663-3.363086 -3.009719 1.468134 1.088229 -1.562222 0.178096-3.853383 -3.376370 0.722766 1.025977 -1.598696 0.168348-4.795350 -3.857440 -0.045678 1.008956 -1.591792 0.175174-4.305645 -3.717332 -0.334259 0.910636 -1.392767 0.183722-4.756411 -4.011962 -1.163871 0.896248 -1.351784 0.184752-3.704300 -3.773155 -1.740451 0.814429 -1.163285 0.180345-4.803776 -3.995411 -2.403922 0.819248 -1.303651 0.173979-4.340427 -4.154088 -2.567264 0.814461 -1.187766 0.181068-4.246588 -4.183574 -2.481016 0.811311 -1.153048 0.184222-5.038621 -4.382554 -2.723317 0.838362 -1.263655 0.185085-4.586715 -4.462783 -2.437334 0.838136 -1.222269 0.181381-4.626759 -4.569132 -2.763257 0.843432 -1.222207 0.178263-4.020752 -4.449220 -2.663998 0.812515 -1.129598 0.170950-3.608807 -4.423429 -2.407064 0.814452 -1.069833 0.168140-4.350211 -4.762155 -2.451422 0.840205 -1.174050 0.161780-5.182547 -4.613532 -2.876340 0.819157 -1.324791 0.153395-4.709967 -4.760216 -3.175651 0.810298 -1.249725 0.153368-4.428931 -4.560536 -3.231434 0.768771 -1.224741 0.152341-5.156107 -4.813115 -3.081950 0.799731 -1.324433 0.156623-4.755668 -4.881768 -2.560900 0.800961 -1.267471 0.162820-5.180467 -5.225705 -1.986447 0.829464 -1.318780 0.166535-5.746256 -5.459065 -0.671529 0.855476 -1.368847 0.174799-4.875437 -5.380863 -0.469590 0.802528 -1.339641 0.153842-4.750986 -4.925865 -0.573885 0.713286 -1.399150 0.139191-4.925084 -4.811373 -0.063286 0.691976 -1.464280 0.136383-5.016528 -5.223688 0.876227 0.740310 -1.469377 0.143806-4.019029 -5.270607 1.601993 0.722450 -1.313789 0.149085-4.627593 -5.408185 2.254901 0.740994 -1.371728 0.159177-5.062721 -5.579498 2.531696 0.739914 -1.486352 0.150717-5.076146 -5.140870 2.230397 0.643303 -1.514148 0.135566-4.300179 -4.675710 1.986250 0.543836 -1.397093 0.126503-3.511388 -4.685575 2.132755 0.499706 -1.265336 0.117970-4.728166 -5.009543 2.090218 0.530588 -1.391866 0.120761-5.195998 -5.359168 2.007148 0.561146 -1.424444 0.121134-4.677355 -5.432069 1.807445 0.553099 -1.317193 0.121001-4.213440 -5.153113 1.062588 0.497021 -1.247059 0.113820-4.720042 -4.880622 0.200153 0.457418 -1.340294 0.104573-5.033994 -5.011286 -0.708399 0.465649 -1.393474 0.097775-4.805239 -5.026543 -0.791686 0.470034 -1.329916 0.103188-4.929547 -5.159288 -0.705319 0.497719 -1.301152 0.114171-5.274248 -5.328485 -0.690953 0.526768 -1.342204 0.118792-5.290114 -5.225073 -0.876117 0.504869 -1.377357 0.114499-5.064438 -5.024489 -1.132249 0.465476 -1.363150 0.112326-4.663429 -5.015082 -1.170318 0.442835 -1.323806 0.114893-4.788146 -5.188186 -0.879684 0.459444 -1.346741 0.124822-5.066605 -5.390832 -0.447547 0.492906 -1.374652 0.139088-5.046064 -5.416448 -0.256564 0.501841 -1.370980 0.149372-4.628814 -5.312720 -0.217110 0.484303 -1.329227 0.155043-4.475197 -5.026953 -0.191127 0.456361 -1.330463 0.161369-4.179097 -4.911405 -0.077976 0.453884 -1.301817 0.169680-4.066340 -4.956805 0.081214 0.493440 -1.293015 0.185920-3.790486 -4.879443 0.074991 0.516806 -1.278558 0.194197-3.516097 -4.644580 -0.186530 0.519910 -1.273000 0.198649-3.464341 -4.497535 -0.439294 0.532559 -1.292730 0.202500-3.494904 -4.421182 -0.623692 0.549654 -1.306969 0.208292-3.602501 -4.390773 -0.698338 0.586579 -1.317525 0.218899-3.499497 -4.362128 -0.630487 0.610717 -1.310833 0.225519-3.481526 -4.303782 -0.600032 0.641218 -1.320963 0.233283-3.374548 -4.178560 -0.610244 0.647465 -1.324573 0.235749-3.123283 -4.013223 -0.579923 0.649377 -1.319988 0.236445-3.048327 -3.968637 -0.541716 0.663280 -1.330143 0.240374-3.033197 -3.793844 -0.522295 0.661262 -1.354691 0.240848-3.003887 -3.870712 -0.581663 0.688324 -1.368700 0.242457-2.935468 -3.829271 -0.490756 0.709560 -1.364136 0.247568-2.847177 -3.843778 -0.342270 0.727724 -1.351951 0.250166-2.846872 -3.878804 -0.409859 0.747854 -1.360949 0.250228-2.843377 -3.766039 -0.376290 0.755651 -1.381205 0.252490-2.975998 -3.823519 -0.396519 0.770960 -1.404708 0.253140-2.686360 -3.835288 -0.399962 0.781101 -1.372542 0.255450-2.687596 -3.888415 -0.211449 0.790313 -1.369892 0.258925-2.722628 -3.889330 -0.114080 0.799127 -1.389846 0.262753-2.814027 -4.033899 0.068197 0.814879 -1.393131 0.267580-2.761450 -4.002530 0.169983 0.805578 -1.395732 0.269337-2.710320 -4.049905 0.202471 0.799562 -1.392522 0.272968-2.956881 -4.117897 0.110109 0.787122 -1.422778 0.278028-2.935447 -4.078235 0.009976 0.768419 -1.410635 0.282903-3.054338 -4.163420 -0.075347 0.763557 -1.397779 0.285608-3.349709 -4.254913 -0.235971 0.768166 -1.405580 0.290018-3.530119 -4.367398 -0.395026 0.767180 -1.388986 0.289955-3.828171 -4.556189 -0.756195 0.762090 -1.385537 0.286116-3.671639 -4.465751 -1.199608 0.718923 -1.338291 0.281506-3.940530 -4.521140 -1.553897 0.707340 -1.346381 0.284066-4.345564 -4.697352 -1.736627 0.696611 -1.366684 0.288238-4.543615 -4.881214 -1.937568 0.683848 -1.359422 0.295122-4.496722 -4.934790 -2.037713 0.663041 -1.332653 0.297741-4.397718 -4.925625 -2.234903 0.636702 -1.311391 0.299335-4.481609 -4.893464 -2.484145 0.596421 -1.312834 0.295389-4.446317 -4.657039 -2.647587 0.533152 -1.299238 0.287135-4.487238 -4.649890 -2.750439 0.496507 -1.290579 0.276643-4.381692 -4.588534 -2.722888 0.456931 -1.254549 0.261216-4.445283 -4.586071 -2.627783 0.436747 -1.245554 0.249210-4.423085 -4.577265 -2.598810 0.413091 -1.230036 0.236392-4.519747 -4.495464 -2.718930 0.344696 -1.216776 0.211167-4.612044 -4.452939 -2.783110 0.324619 -1.222456 0.205186-4.586961 -4.430675 -2.790195 0.308742 -1.210130 0.200076-4.611565 -4.416004 -2.815464 0.292701 -1.207005 0.193663-4.895598 -4.441365 -2.973660 0.283966 -1.245814 0.185261-4.875072 -4.352226 -3.001723 0.259665 -1.238312 0.171491-4.846147 -4.423804 -2.837771 0.256221 -1.217422 0.152215-5.061227 -4.422209 -2.881018 0.256299 -1.248246 0.131908-5.047578 -4.457247 -2.808260 0.248233 -1.247981 0.105838-5.148564 -4.398511 -2.972143 0.238512 -1.266089 0.086327-5.253997 -4.392832 -3.209462 0.235136 -1.285906 0.068669-5.281603 -4.346499 -3.316398 0.231137 -1.291499 0.059243-5.335287 -4.380610 -3.280006 0.241757 -1.294888 0.056956-5.300621 -4.351217 -3.222812 0.240525 -1.297767 0.052305-5.242262 -4.288939 -3.141681 0.242017 -1.295744 0.047719-5.126517 -4.156762 -3.233838 0.232932 -1.301054 0.040823-5.096342 -4.104213 -3.299983 0.232791 -1.312903 0.035414-4.968780 -3.933909 -3.441452 0.218820 -1.313345 0.031471-4.845583 -3.859826 -3.298028 0.220293 -1.314314 0.029633-4.927061 -3.855922 -3.462437 0.231737 -1.333904 0.027642-4.681589 -3.693726 -3.443074 0.224312 -1.295748 0.028302-4.587552 -3.764881 -3.316845 0.245908 -1.299759 0.025431-4.856365 -3.779890 -3.538179 0.255214 -1.332969 0.024789-4.772059 -3.650684 -3.634110 0.238121 -1.328362 0.021196-4.732860 -3.711624 -3.508281 0.242684 -1.325621 0.015608-4.864872 -3.736115 -3.602195 0.238231 -1.338031 0.008161-4.766898 -3.574795 -3.736550 0.198676 -1.341811 -0.005401-4.719478 -3.519701 -3.664433 0.166845 -1.329656 -0.017750-4.738565 -3.448622 -3.636474 0.129479 -1.313186 -0.029038-4.906479 -3.331093 -3.772660 0.081960 -1.316374 -0.043606-4.610940 -3.226207 -3.496696 0.025305 -1.249044 -0.066145-4.745892 -3.056095 -3.282108 -0.009053 -1.262773 -0.083993-4.827753 -2.999980 -3.262791 -0.055330 -1.263431 -0.102467-4.572109 -2.763463 -3.524469 -0.108324 -1.250356 -0.122111-4.378230 -2.407974 -3.668983 -0.182633 -1.245221 -0.141886-4.098550 -1.918857 -3.384117 -0.249946 -1.198340 -0.155752-4.021531 -1.883942 -3.189897 -0.255985 -1.187312 -0.163559-3.945676 -1.640309 -2.959096 -0.293785 -1.169086 -0.175136-3.747550 -1.489447 -2.702844 -0.327916 -1.129128 -0.190151-3.528448 -1.326889 -2.748752 -0.365210 -1.108253 -0.203962-3.395055 -0.955135 -2.936315 -0.428976 -1.116562 -0.221211-3.477655 -0.855814 -3.051637 -0.461310 -1.133841 -0.233742-3.578979 -0.549120 -2.920210 -0.511148 -1.137116 -0.238918-3.663700 -0.557660 -2.772338 -0.521730 -1.133341 -0.242557-3.765753 -0.760836 -2.686922 -0.507883 -1.129815 -0.244982-3.617952 -0.584766 -2.625734 -0.530797 -1.110667 -0.247488-3.471273 -0.305755 -2.589512 -0.560758 -1.093042 -0.252664-3.001471 -0.074744 -2.854504 -0.593376 -1.059006 -0.265619-3.327459 -0.181894 -2.725749 -0.572743 -1.088527 -0.272443-3.380982 -0.084204 -2.248038 -0.558664 -1.076376 -0.269138-3.408726 -0.556153 -2.071057 -0.509430 -1.071269 -0.278995-3.063704 -0.179824 -2.346498 -0.565126 -1.061874 -0.291276-3.483802 0.188402 -2.446875 -0.609460 -1.115711 -0.296807-3.534637 0.052877 -2.905509 -0.618679 -1.144794 -0.306110-3.318397 0.390517 -2.425040 -0.652166 -1.077656 -0.294208-2.887287 0.323789 -2.571132 -0.664126 -1.017243 -0.294185-3.076717 0.229336 -2.548312 -0.667373 -1.024278 -0.289051-3.131112 0.360232 -2.076397 -0.674045 -1.016901 -0.280447-2.817773 0.230968 -1.980238 -0.683072 -0.951444 -0.277786-3.355213 0.475564 -2.501962 -0.727251 -1.065281 -0.294556-2.453449 0.716992 -2.950776 -0.789125 -0.982710 -0.308096-2.544314 1.055419 -2.934034 -0.805376 -1.007426 -0.311100-3.081436 0.883691 -2.926506 -0.792391 -1.077897 -0.320507-3.295996 0.432101 -2.292325 -0.716451 -1.057656 -0.315691-3.331945 0.289336 -1.602508 -0.691122 -1.039812 -0.313722-3.141576 0.240661 -1.983957 -0.694399 -1.045122 -0.329294-2.630113 0.720992 -2.713631 -0.791456 -1.035481 -0.349898-3.220555 0.723696 -3.237068 -0.790922 -1.146986 -0.363574-3.388818 0.812205 -2.783705 -0.793881 -1.130366 -0.352317-3.086652 0.462878 -1.862792 -0.735716 -0.999965 -0.330301-3.528259 0.435941 -2.328358 -0.756274 -1.105938 -0.353832-3.577926 0.672495 -2.525484 -0.800694 -1.126067 -0.362504-3.737874 1.105869 -2.497287 -0.854557 -1.141706 -0.367122-3.078944 1.116474 -2.330726 -0.849845 -1.009400 -0.356339-2.858297 0.676731 -2.296264 -0.807015 -0.984360 -0.359837-3.449780 0.442046 -1.869132 -0.736903 -1.056389 -0.359454-4.155034 0.454675 -1.886389 -0.740556 -1.166115 -0.372062-3.325872 0.866035 -1.844748 -0.781094 -1.044254 -0.367672-2.363797 0.979260 -1.606942 -0.792096 -0.900110 -0.358053-2.775578 0.786986 -1.645381 -0.771573 -0.997861 -0.367853-3.065828 1.134012 -2.166437 -0.818741 -1.123025 -0.388998-2.636305 1.237027 -2.219833 -0.845743 -1.034237 -0.376595-1.857137 0.836738 -1.641775 -0.785331 -0.903229 -0.355101-1.936515 0.521454 -1.528021 -0.779766 -0.916340 -0.350272-2.925160 0.929940 -2.269800 -0.862309 -1.130296 -0.376915-2.195971 1.214316 -2.106447 -0.908007 -1.011862 -0.366724-2.422878 1.175836 -1.737058 -0.903032 -1.001844 -0.352218-2.968713 0.416712 -1.503959 -0.800011 -1.062980 -0.345172-2.874660 0.282860 -1.277347 -0.798883 -1.086955 -0.352052-3.473032 0.941228 -1.643684 -0.862808 -1.190423 -0.359021-2.592919 1.117072 -1.463944 -0.908460 -1.053896 -0.344285-3.380494 0.761816 -1.488781 -0.833240 -1.198228 -0.351627-2.768175 0.465739 -1.010467 -0.810786 -1.113718 -0.343162-3.464687 0.541553 -1.159297 -0.791875 -1.234091 -0.352850-2.591055 0.547445 -1.454054 -0.820712 -1.121440 -0.354317-2.748238 0.564877 -1.163004 -0.821438 -1.131515 -0.356067-3.034229 0.236536 -1.292751 -0.800393 -1.171907 -0.366964-3.169486 0.307319 -1.000006 -0.800914 -1.182615 -0.365170-3.086027 0.678802 -0.686341 -0.850145 -1.181770 -0.372570-2.973873 0.844910 -1.217416 -0.891850 -1.173586 -0.383272-2.517575 0.884645 -0.874857 -0.900262 -1.074267 -0.370556-2.633266 0.728265 -0.656236 -0.876173 -1.131453 -0.366164-2.714179 0.863569 -0.450375 -0.879973 -1.147853 -0.358750-2.884816 0.781937 -0.328197 -0.868611 -1.175096 -0.365316-1.690445 0.898921 -0.863576 -0.906720 -1.056886 -0.379379-2.253545 0.904184 -0.701979 -0.876558 -1.133336 -0.386506-1.806654 0.758802 0.215130 -0.841253 -1.063859 -0.380748-2.163064 0.764252 0.819500 -0.808947 -1.068363 -0.377661-3.296348 0.723618 0.782021 -0.800419 -1.268043 -0.414745-2.419560 1.242577 0.642218 -0.843443 -1.197654 -0.420706-2.419093 1.784492 0.627553 -0.903493 -1.182140 -0.423939-3.609946 1.355586 0.580071 -0.810592 -1.369335 -0.437831-3.550932 1.318256 1.184941 -0.758589 -1.292308 -0.415410-3.039134 1.224341 1.857572 -0.698646 -1.218759 -0.386066-2.694944 0.708576 2.150262 -0.570509 -1.160866 -0.355224-2.292616 1.411594 1.744387 -0.628409 -1.164860 -0.359389-2.219899 1.748965 1.463057 -0.612674 -1.227143 -0.373366-1.887517 2.325881 1.553197 -0.627258 -1.187609 -0.369423-2.032823 2.270747 2.132415 -0.543350 -1.212473 -0.365408-1.243120 2.306820 2.344758 -0.489271 -1.106031 -0.356130-1.580489 2.211683 2.935822 -0.415349 -1.134765 -0.350839-1.780612 2.501830 3.326496 -0.392531 -1.219996 -0.363862-1.232068 2.842949 2.921948 -0.391670 -1.177487 -0.371939-2.304261 2.993266 2.728485 -0.348656 -1.382442 -0.396879-1.448302 3.521107 2.707699 -0.359057 -1.311291 -0.397048-1.591981 3.640649 2.750742 -0.321824 -1.325819 -0.394427-1.758341 3.780319 3.148128 -0.265397 -1.362035 -0.382014-1.467495 3.466691 3.049733 -0.192326 -1.348504 -0.369613-1.130265 3.607195 3.575950 -0.141919 -1.306019 -0.342934-0.553192 4.023308 3.107910 -0.161565 -1.267876 -0.348079-0.411141 4.030636 3.422066 -0.066743 -1.263671 -0.337316-0.450212 4.189721 3.291432 -0.028666 -1.321803 -0.349035-0.371158 4.354583 3.532794 0.063488 -1.296851 -0.327684-0.356501 4.307844 3.918363 0.196393 -1.319647 -0.305926-0.075524 4.603871 4.187807 0.289203 -1.329641 -0.279506-0.393839 5.137812 4.106180 0.330687 -1.433342 -0.2694490.480961 5.669634 4.489781 0.365209 -1.334690 -0.2302441.089089 5.763572 4.477376 0.422383 -1.308894 -0.2080580.910909 5.909114 4.935162 0.505335 -1.325732 -0.1767051.424889 6.281516 5.691978 0.528409 -1.292422 -0.1647211.045081 6.057252 5.884706 0.629019 -1.392424 -0.1700851.368175 6.467473 6.150765 0.641993 -1.395315 -0.1689452.066611 6.635663 6.735407 0.697260 -1.367260 -0.1619281.194766 6.905592 7.286155 0.759428 -1.522814 -0.1667930.876231 6.670002 7.730396 0.851432 -1.628663 -0.1738022.307914 6.857932 8.251663 0.868040 -1.455639 -0.1468812.578664 6.945227 8.900080 0.885370 -1.435674 -0.1298471.965808 6.891328 9.252328 0.909493 -1.603598 -0.1405271.879240 7.009151 9.569259 0.904161 -1.720128 -0.1454952.404064 7.336010 9.364609 0.866626 -1.737882 -0.1383282.924550 7.479181 9.853731 0.872757 -1.681697 -0.1018802.900051 7.184586 10.311368 0.924743 -1.730089 -0.0860182.630375 6.943960 11.128295 0.984031 -1.740689 -0.0562252.470966 6.808481 11.767886 1.016675 -1.744919 -0.0370822.128402 6.452540 11.754525 1.057478 -1.847743 -0.0499742.249815 6.640381 11.320977 1.031168 -1.856696 -0.0530672.486215 6.787039 11.272632 1.013450 -1.797894 -0.0392202.735735 6.455774 11.520628 1.060854 -1.703717 -0.0112032.240910 5.722211 12.281643 1.174694 -1.683800 0.0228351.274163 5.099661 11.964742 1.254470 -1.817490 0.0155951.302519 5.052990 11.544454 1.264354 -1.781697 0.0266351.619163 5.065243 11.306761 1.269745 -1.737308 0.0361301.286512 4.812290 11.196320 1.321679 -1.767117 0.0486640.810385 4.427676 11.504221 1.402568 -1.782228 0.0741010.689235 4.164120 11.270206 1.459086 -1.830191 0.0793921.531192 4.260194 10.443858 1.417475 -1.729825 0.0861791.405068 4.334944 10.156013 1.365518 -1.707179 0.0970130.544022 4.109940 9.914664 1.365402 -1.826353 0.0895480.314604 3.537200 9.820908 1.405275 -1.833842 0.0972640.567775 3.112622 9.830442 1.430982 -1.774853 0.1132740.604200 2.993260 9.744379 1.428339 -1.762632 0.121131-0.131341 2.623106 9.047504 1.433441 -1.908306 0.103707-0.847995 2.541158 8.916467 1.391069 -2.001405 0.102762-0.492141 2.178591 9.127733 1.373384 -1.905042 0.1275650.127483 1.610312 9.068435 1.371112 -1.797883 0.1424070.411224 1.471444 9.267952 1.331137 -1.747543 0.153640-1.085785 1.285601 9.195471 1.303737 -1.993672 0.123341-0.659842 1.071263 9.140347 1.289432 -1.926212 0.1233510.162830 1.440044 9.034105 1.196214 -1.773520 0.1225530.148490 1.415474 8.820672 1.147369 -1.752862 0.114438-1.294308 1.141393 8.778779 1.138384 -1.932709 0.090747-1.128775 0.441203 9.385179 1.159672 -1.838092 